# time(ns)  Fourier    CSA-BTE   RTA-BTE
0.000000   1.000000   1.000000   1.000000   
0.000500   0.994475   0.999988   0.999989   
0.001000   0.986977   0.999952   0.999956   
0.001500   0.979936   0.999894   0.999898   
0.002000   0.972781   0.999811   0.999815   
0.002500   0.965747   0.999703   0.999706   
0.003000   0.958763   0.999569   0.999571   
0.003500   0.951780   0.999410   0.999410   
0.004000   0.944860   0.999227   0.999224   
0.004500   0.938037   0.999019   0.999012   
0.005000   0.931273   0.998787   0.998775   
0.005500   0.924525   0.998531   0.998514   
0.006000   0.917794   0.998250   0.998228   
0.006500   0.911103   0.997946   0.997917   
0.007000   0.904470   0.997618   0.997583   
0.007500   0.897909   0.997266   0.997224   
0.008000   0.891422   0.996891   0.996841   
0.008500   0.885000   0.996492   0.996435   
0.009000   0.878621   0.996071   0.996005   
0.009500   0.872273   0.995627   0.995552   
0.010000   0.865950   0.995160   0.995076   
0.010500   0.859654   0.994670   0.994577   
0.011000   0.853390   0.994159   0.994056   
0.011500   0.847166   0.993626   0.993513   
0.012000   0.840987   0.993071   0.992948   
0.012500   0.834859   0.992495   0.992362   
0.013000   0.828784   0.991898   0.991754   
0.013500   0.822766   0.991280   0.991125   
0.014000   0.816807   0.990642   0.990476   
0.014500   0.810906   0.989983   0.989806   
0.015000   0.805061   0.989304   0.989116   
0.015500   0.799265   0.988605   0.988405   
0.016000   0.793513   0.987887   0.987675   
0.016500   0.787797   0.987148   0.986925   
0.017000   0.782115   0.986390   0.986155   
0.017500   0.776464   0.985613   0.985367   
0.018000   0.770842   0.984816   0.984559   
0.018500   0.765250   0.984001   0.983732   
0.019000   0.759689   0.983167   0.982886   
0.019500   0.754159   0.982314   0.982022   
0.020000   0.748662   0.981442   0.981140   
0.020500   0.743200   0.980553   0.980239   
0.021000   0.737775   0.979645   0.979321   
0.021500   0.732389   0.978720   0.978385   
0.022000   0.727043   0.977777   0.977431   
0.022500   0.721738   0.976817   0.976460   
0.023000   0.716476   0.975839   0.975472   
0.023500   0.711256   0.974844   0.974468   
0.024000   0.706080   0.973833   0.973447   
0.024500   0.700948   0.972804   0.972409   
0.025000   0.695862   0.971760   0.971355   
0.025500   0.690821   0.970699   0.970286   
0.026000   0.685825   0.969622   0.969200   
0.026500   0.680873   0.968529   0.968100   
0.027000   0.675965   0.967421   0.966984   
0.027500   0.671099   0.966297   0.965852   
0.028000   0.666272   0.965158   0.964707   
0.028500   0.661485   0.964004   0.963546   
0.029000   0.656733   0.962834   0.962371   
0.029500   0.652015   0.961651   0.961182   
0.030000   0.647329   0.960452   0.959978   
0.030500   0.642674   0.959239   0.958761   
0.031000   0.638048   0.958012   0.957530   
0.031500   0.633450   0.956771   0.956285   
0.032000   0.628881   0.955515   0.955027   
0.032500   0.624338   0.954246   0.953756   
0.033000   0.619823   0.952964   0.952472   
0.033500   0.615334   0.951667   0.951175   
0.034000   0.610873   0.950358   0.949865   
0.034500   0.606438   0.949035   0.948542   
0.035000   0.602029   0.947699   0.947207   
0.035500   0.597648   0.946350   0.945860   
0.036000   0.593294   0.944989   0.944501   
0.036500   0.588968   0.943615   0.943130   
0.037000   0.584670   0.942228   0.941747   
0.037500   0.580400   0.940830   0.940352   
0.038000   0.576160   0.939419   0.938946   
0.038500   0.571949   0.937996   0.937529   
0.039000   0.567767   0.936561   0.936101   
0.039500   0.563617   0.935115   0.934662   
0.040000   0.559496   0.933657   0.933212   
0.040500   0.555407   0.932188   0.931752   
0.041000   0.551348   0.930707   0.930281   
0.041500   0.547320   0.929216   0.928800   
0.042000   0.543323   0.927714   0.927309   
0.042500   0.539357   0.926201   0.925808   
0.043000   0.535422   0.924677   0.924298   
0.043500   0.531519   0.923143   0.922778   
0.044000   0.527647   0.921599   0.921249   
0.044500   0.523806   0.920045   0.919710   
0.045000   0.519997   0.918481   0.918162   
0.045500   0.516220   0.916907   0.916606   
0.046000   0.512475   0.915324   0.915041   
0.046500   0.508761   0.913731   0.913467   
0.047000   0.505079   0.912128   0.911886   
0.047500   0.501429   0.910517   0.910296   
0.048000   0.497809   0.908897   0.908698   
0.048500   0.494221   0.907268   0.907092   
0.049000   0.490662   0.905630   0.905478   
0.049500   0.487134   0.903983   0.903857   
0.050000   0.483635   0.902329   0.902229   
0.050500   0.480164   0.900666   0.900593   
0.051000   0.476722   0.898994   0.898950   
0.051500   0.473307   0.897315   0.897301   
0.052000   0.469919   0.895628   0.895644   
0.052500   0.466558   0.893933   0.893981   
0.053000   0.463222   0.892231   0.892312   
0.053500   0.459911   0.890521   0.890636   
0.054000   0.456623   0.888804   0.888953   
0.054500   0.453359   0.887080   0.887265   
0.055000   0.450118   0.885348   0.885571   
0.055500   0.446899   0.883610   0.883870   
0.056000   0.443701   0.881864   0.882164   
0.056500   0.440524   0.880112   0.880453   
0.057000   0.437368   0.878353   0.878736   
0.057500   0.434233   0.876587   0.877013   
0.058000   0.431117   0.874815   0.875285   
0.058500   0.428022   0.873037   0.873552   
0.059000   0.424946   0.871252   0.871813   
0.059500   0.421889   0.869461   0.870070   
0.060000   0.418851   0.867664   0.868322   
0.060500   0.415833   0.865861   0.866569   
0.061000   0.412833   0.864052   0.864811   
0.061500   0.409851   0.862238   0.863049   
0.062000   0.406889   0.860417   0.861282   
0.062500   0.403944   0.858591   0.859510   
0.063000   0.401018   0.856760   0.857735   
0.063500   0.398111   0.854922   0.855955   
0.064000   0.395221   0.853080   0.854171   
0.064500   0.392350   0.851232   0.852382   
0.065000   0.389497   0.849379   0.850590   
0.065500   0.386662   0.847521   0.848794   
0.066000   0.383845   0.845658   0.846994   
0.066500   0.381046   0.843790   0.845191   
0.067000   0.378266   0.841917   0.843384   
0.067500   0.375504   0.840040   0.841573   
0.068000   0.372759   0.838158   0.839759   
0.068500   0.370033   0.836271   0.837941   
0.069000   0.367326   0.834379   0.836121   
0.069500   0.364636   0.832484   0.834297   
0.070000   0.361966   0.830584   0.832470   
0.070500   0.359313   0.828679   0.830640   
0.071000   0.356680   0.826771   0.828807   
0.071500   0.354065   0.824858   0.826972   
0.072000   0.351469   0.822942   0.825133   
0.072500   0.348891   0.821022   0.823293   
0.073000   0.346332   0.819098   0.821449   
0.073500   0.343792   0.817170   0.819603   
0.074000   0.341271   0.815238   0.817755   
0.074500   0.338768   0.813304   0.815905   
0.075000   0.336284   0.811365   0.814052   
0.075500   0.333818   0.809424   0.812198   
0.076000   0.331371   0.807479   0.810341   
0.076500   0.328942   0.805531   0.808483   
0.077000   0.326531   0.803579   0.806623   
0.077500   0.324139   0.801625   0.804761   
0.078000   0.321766   0.799668   0.802897   
0.078500   0.319410   0.797708   0.801032   
0.079000   0.317073   0.795745   0.799166   
0.079500   0.314754   0.793780   0.797298   
0.080000   0.312453   0.791812   0.795429   
0.080500   0.310170   0.789841   0.793558   
0.081000   0.307905   0.787869   0.791687   
0.081500   0.305659   0.785893   0.789814   
0.082000   0.303430   0.783916   0.787941   
0.082500   0.301219   0.781936   0.786066   
0.083000   0.299027   0.779954   0.784191   
0.083500   0.296852   0.777970   0.782315   
0.084000   0.294696   0.775984   0.780439   
0.084500   0.292557   0.773997   0.778562   
0.085000   0.290437   0.772007   0.776684   
0.085500   0.288334   0.770016   0.774807   
0.086000   0.286249   0.768023   0.772928   
0.086500   0.284181   0.766029   0.771050   
0.087000   0.282131   0.764033   0.769171   
0.087500   0.280098   0.762035   0.767292   
0.088000   0.278082   0.760036   0.765414   
0.088500   0.276083   0.758036   0.763535   
0.089000   0.274101   0.756035   0.761656   
0.089500   0.272136   0.754032   0.759778   
0.090000   0.270188   0.752029   0.757899   
0.090500   0.268256   0.750024   0.756021   
0.091000   0.266340   0.748019   0.754144   
0.091500   0.264440   0.746012   0.752267   
0.092000   0.262555   0.744005   0.750390   
0.092500   0.260687   0.741997   0.748514   
0.093000   0.258834   0.739988   0.746638   
0.093500   0.256995   0.737978   0.744763   
0.094000   0.255172   0.735968   0.742889   
0.094500   0.253364   0.733957   0.741016   
0.095000   0.251570   0.731946   0.739144   
0.095500   0.249790   0.729935   0.737272   
0.096000   0.248025   0.727923   0.735401   
0.096500   0.246273   0.725910   0.733532   
0.097000   0.244535   0.723897   0.731663   
0.097500   0.242810   0.721885   0.729796   
0.098000   0.241098   0.719871   0.727929   
0.098500   0.239398   0.717858   0.726064   
0.099000   0.237712   0.715845   0.724200   
0.099500   0.236037   0.713831   0.722337   
0.100000   0.234375   0.711818   0.720476   
0.100500   0.232724   0.709804   0.718615   
0.101000   0.231085   0.707791   0.716757   
0.101500   0.229458   0.705778   0.714899   
0.102000   0.227841   0.703764   0.713043   
0.102500   0.226236   0.701751   0.711189   
0.103000   0.224641   0.699739   0.709336   
0.103500   0.223057   0.697726   0.707484   
0.104000   0.221484   0.695713   0.705634   
0.104500   0.219921   0.693701   0.703786   
0.105000   0.218368   0.691689   0.701939   
0.105500   0.216825   0.689678   0.700093   
0.106000   0.215292   0.687667   0.698250   
0.106500   0.213768   0.685656   0.696408   
0.107000   0.212255   0.683645   0.694568   
0.107500   0.210751   0.681635   0.692729   
0.108000   0.209257   0.679626   0.690892   
0.108500   0.207772   0.677617   0.689057   
0.109000   0.206296   0.675608   0.687223   
0.109500   0.204830   0.673600   0.685392   
0.110000   0.203372   0.671592   0.683562   
0.110500   0.201924   0.669585   0.681733   
0.111000   0.200485   0.667579   0.679907   
0.111500   0.199054   0.665573   0.678083   
0.112000   0.197633   0.663567   0.676260   
0.112500   0.196220   0.661563   0.674439   
0.113000   0.194816   0.659559   0.672620   
0.113500   0.193420   0.657555   0.670803   
0.114000   0.192033   0.655553   0.668987   
0.114500   0.190654   0.653550   0.667174   
0.115000   0.189284   0.651549   0.665362   
0.115500   0.187922   0.649548   0.663553   
0.116000   0.186569   0.647548   0.661745   
0.116500   0.185224   0.645549   0.659939   
0.117000   0.183887   0.643551   0.658135   
0.117500   0.182558   0.641553   0.656333   
0.118000   0.181238   0.639556   0.654533   
0.118500   0.179925   0.637560   0.652735   
0.119000   0.178621   0.635565   0.650939   
0.119500   0.177324   0.633570   0.649145   
0.120000   0.176036   0.631577   0.647353   
0.120500   0.174756   0.629584   0.645563   
0.121000   0.173484   0.627592   0.643775   
0.121500   0.172219   0.625601   0.641989   
0.122000   0.170963   0.623611   0.640205   
0.122500   0.169714   0.621622   0.638423   
0.123000   0.168474   0.619634   0.636643   
0.123500   0.167241   0.617647   0.634865   
0.124000   0.166016   0.615660   0.633089   
0.124500   0.164799   0.613675   0.631316   
0.125000   0.163589   0.611691   0.629544   
0.125500   0.162388   0.609707   0.627774   
0.126000   0.161194   0.607725   0.626007   
0.126500   0.160008   0.605744   0.624242   
0.127000   0.158829   0.603764   0.622478   
0.127500   0.157659   0.601784   0.620717   
0.128000   0.156496   0.599806   0.618958   
0.128500   0.155341   0.597829   0.617201   
0.129000   0.154194   0.595853   0.615447   
0.129500   0.153054   0.593879   0.613694   
0.130000   0.151922   0.591905   0.611944   
0.130500   0.150799   0.589932   0.610196   
0.131000   0.149682   0.587961   0.608450   
0.131500   0.148574   0.585991   0.606706   
0.132000   0.147473   0.584022   0.604965   
0.132500   0.146380   0.582054   0.603225   
0.133000   0.145295   0.580088   0.601488   
0.133500   0.144217   0.578122   0.599753   
0.134000   0.143148   0.576158   0.598021   
0.134500   0.142085   0.574196   0.596291   
0.135000   0.141031   0.572234   0.594563   
0.135500   0.139984   0.570274   0.592837   
0.136000   0.138944   0.568315   0.591113   
0.136500   0.137913   0.566358   0.589392   
0.137000   0.136888   0.564401   0.587673   
0.137500   0.135871   0.562447   0.585957   
0.138000   0.134862   0.560493   0.584243   
0.138500   0.133860   0.558541   0.582531   
0.139000   0.132865   0.556590   0.580822   
0.139500   0.131878   0.554641   0.579115   
0.140000   0.130898   0.552693   0.577410   
0.140500   0.129925   0.550747   0.575707   
0.141000   0.128960   0.548802   0.574008   
0.141500   0.128002   0.546859   0.572310   
0.142000   0.127051   0.544917   0.570615   
0.142500   0.126107   0.542977   0.568922   
0.143000   0.125170   0.541038   0.567232   
0.143500   0.124241   0.539101   0.565544   
0.144000   0.123319   0.537165   0.563859   
0.144500   0.122403   0.535231   0.562176   
0.145000   0.121495   0.533298   0.560496   
0.145500   0.120594   0.531367   0.558818   
0.146000   0.119699   0.529438   0.557142   
0.146500   0.118812   0.527510   0.555469   
0.147000   0.117931   0.525584   0.553799   
0.147500   0.117058   0.523659   0.552130   
0.148000   0.116191   0.521736   0.550465   
0.148500   0.115331   0.519815   0.548802   
0.149000   0.114478   0.517896   0.547142   
0.149500   0.113632   0.515978   0.545484   
0.150000   0.112793   0.514062   0.543828   
0.150500   0.111960   0.512147   0.542175   
0.151000   0.111135   0.510235   0.540525   
0.151500   0.110316   0.508324   0.538877   
0.152000   0.109503   0.506415   0.537232   
0.152500   0.108698   0.504507   0.535589   
0.153000   0.107899   0.502602   0.533949   
0.153500   0.107107   0.500698   0.532312   
0.154000   0.106322   0.498796   0.530677   
0.154500   0.105543   0.496896   0.529044   
0.155000   0.104771   0.494997   0.527415   
0.155500   0.104006   0.493101   0.525788   
0.156000   0.103247   0.491206   0.524163   
0.156500   0.102495   0.489314   0.522541   
0.157000   0.101749   0.487423   0.520922   
0.157500   0.101010   0.485534   0.519305   
0.158000   0.100278   0.483646   0.517691   
0.158500   0.099551   0.481761   0.516080   
0.159000   0.098832   0.479878   0.514471   
0.159500   0.098118   0.477997   0.512865   
0.160000   0.097411   0.476117   0.511261   
0.160500   0.096710   0.474240   0.509660   
0.161000   0.096016   0.472364   0.508062   
0.161500   0.095327   0.470491   0.506466   
0.162000   0.094645   0.468619   0.504874   
0.162500   0.093969   0.466750   0.503283   
0.163000   0.093299   0.464882   0.501696   
0.163500   0.092635   0.463017   0.500111   
0.164000   0.091976   0.461153   0.498529   
0.164500   0.091324   0.459292   0.496950   
0.165000   0.090678   0.457432   0.495373   
0.165500   0.090037   0.455575   0.493799   
0.166000   0.089402   0.453720   0.492227   
0.166500   0.088773   0.451867   0.490659   
0.167000   0.088150   0.450016   0.489093   
0.167500   0.087532   0.448167   0.487530   
0.168000   0.086920   0.446320   0.485969   
0.168500   0.086313   0.444475   0.484412   
0.169000   0.085712   0.442633   0.482857   
0.169500   0.085115   0.440792   0.481304   
0.170000   0.084525   0.438954   0.479755   
0.170500   0.083939   0.437118   0.478208   
0.171000   0.083359   0.435284   0.476664   
0.171500   0.082784   0.433452   0.475123   
0.172000   0.082213   0.431623   0.473584   
0.172500   0.081648   0.429795   0.472048   
0.173000   0.081088   0.427970   0.470515   
0.173500   0.080532   0.426147   0.468985   
0.174000   0.079982   0.424327   0.467457   
0.174500   0.079436   0.422508   0.465933   
0.175000   0.078895   0.420692   0.464411   
0.175500   0.078358   0.418878   0.462891   
0.176000   0.077826   0.417067   0.461375   
0.176500   0.077299   0.415257   0.459861   
0.177000   0.076775   0.413450   0.458350   
0.177500   0.076257   0.411646   0.456842   
0.178000   0.075742   0.409843   0.455337   
0.178500   0.075232   0.408043   0.453834   
0.179000   0.074726   0.406245   0.452334   
0.179500   0.074224   0.404449   0.450837   
0.180000   0.073725   0.402656   0.449343   
0.180500   0.073231   0.400865   0.447851   
0.181000   0.072741   0.399077   0.446362   
0.181500   0.072254   0.397290   0.444876   
0.182000   0.071772   0.395507   0.443393   
0.182500   0.071292   0.393725   0.441912   
0.183000   0.070817   0.391946   0.440435   
0.183500   0.070345   0.390169   0.438960   
0.184000   0.069876   0.388395   0.437487   
0.184500   0.069411   0.386622   0.436018   
0.185000   0.068949   0.384853   0.434551   
0.185500   0.068490   0.383085   0.433087   
0.186000   0.068035   0.381321   0.431626   
0.186500   0.067582   0.379558   0.430168   
0.187000   0.067133   0.377798   0.428712   
0.187500   0.066687   0.376040   0.427259   
0.188000   0.066244   0.374285   0.425809   
0.188500   0.065803   0.372532   0.424361   
0.189000   0.065366   0.370781   0.422916   
0.189500   0.064931   0.369033   0.421474   
0.190000   0.064499   0.367287   0.420035   
0.190500   0.064070   0.365544   0.418598   
0.191000   0.063644   0.363803   0.417164   
0.191500   0.063220   0.362065   0.415733   
0.192000   0.062799   0.360329   0.414305   
0.192500   0.062381   0.358595   0.412879   
0.193000   0.061965   0.356864   0.411456   
0.193500   0.061551   0.355135   0.410035   
0.194000   0.061140   0.353409   0.408617   
0.194500   0.060732   0.351685   0.407202   
0.195000   0.060326   0.349964   0.405790   
0.195500   0.059922   0.348245   0.404380   
0.196000   0.059521   0.346528   0.402973   
0.196500   0.059122   0.344814   0.401569   
0.197000   0.058725   0.343103   0.400167   
0.197500   0.058330   0.341393   0.398768   
0.198000   0.057938   0.339687   0.397371   
0.198500   0.057548   0.337983   0.395977   
0.199000   0.057161   0.336281   0.394586   
0.199500   0.056775   0.334581   0.393198   
0.200000   0.056392   0.332885   0.391812   
0.200500   0.056010   0.331190   0.390428   
0.201000   0.055631   0.329498   0.389048   
0.201500   0.055254   0.327809   0.387670   
0.202000   0.054880   0.326122   0.386294   
0.202500   0.054507   0.324437   0.384921   
0.203000   0.054136   0.322755   0.383551   
0.203500   0.053767   0.321076   0.382183   
0.204000   0.053400   0.319399   0.380818   
0.204500   0.053036   0.317724   0.379456   
0.205000   0.052673   0.316052   0.378096   
0.205500   0.052312   0.314383   0.376738   
0.206000   0.051953   0.312716   0.375384   
0.206500   0.051596   0.311051   0.374031   
0.207000   0.051241   0.309389   0.372682   
0.207500   0.050887   0.307730   0.371335   
0.208000   0.050536   0.306073   0.369990   
0.208500   0.050186   0.304419   0.368648   
0.209000   0.049838   0.302767   0.367309   
0.209500   0.049492   0.301117   0.365972   
0.210000   0.049148   0.299471   0.364638   
0.210500   0.048806   0.297826   0.363307   
0.211000   0.048465   0.296185   0.361977   
0.211500   0.048126   0.294546   0.360651   
0.212000   0.047789   0.292909   0.359327   
0.212500   0.047454   0.291275   0.358005   
0.213000   0.047120   0.289644   0.356687   
0.213500   0.046788   0.288015   0.355370   
0.214000   0.046458   0.286389   0.354057   
0.214500   0.046129   0.284765   0.352745   
0.215000   0.045803   0.283144   0.351437   
0.215500   0.045478   0.281525   0.350131   
0.216000   0.045154   0.279910   0.348827   
0.216500   0.044832   0.278296   0.347526   
0.217000   0.044512   0.276686   0.346227   
0.217500   0.044194   0.275078   0.344932   
0.218000   0.043877   0.273473   0.343638   
0.218500   0.043562   0.271870   0.342347   
0.219000   0.043249   0.270270   0.341059   
0.219500   0.042937   0.268673   0.339773   
0.220000   0.042626   0.267078   0.338490   
0.220500   0.042318   0.265486   0.337210   
0.221000   0.042011   0.263897   0.335932   
