# distance  frequency (bands are separated by blank lines)
# End points of segments: 
#   0.00000000 0.17682590 0.23935580 0.42694550 0.58011180 
0.000000 -0.007514
0.003467 0.093011
0.006934 0.185142
0.010401 0.276650
0.013869 0.367339
0.017336 0.456984
0.020803 0.545374
0.024270 0.632325
0.027737 0.717680
0.031205 0.801311
0.034672 0.883124
0.038139 0.963051
0.041606 1.041052
0.045073 1.117111
0.048540 1.191233
0.052008 1.263436
0.055475 1.333750
0.058942 1.402209
0.062409 1.468845
0.065876 1.533688
0.069344 1.596754
0.072811 1.658049
0.076278 1.717557
0.079745 1.775247
0.083212 1.831064
0.086679 1.884937
0.090147 1.936772
0.093614 1.986462
0.097081 2.033888
0.100548 2.078924
0.104015 2.121441
0.107482 2.161318
0.110950 2.198444
0.114417 2.232725
0.117884 2.264093
0.121351 2.292510
0.124818 2.317970
0.128285 2.340505
0.131753 2.360187
0.135220 2.377124
0.138687 2.391466
0.142154 2.403394
0.145621 2.413120
0.149089 2.420878
0.152556 2.426919
0.156023 2.431497
0.159490 2.434862
0.162957 2.437249
0.166424 2.438868
0.169892 2.439892
0.173359 2.440452
0.176826 2.440630

0.176826 2.440630
0.178052 2.440844
0.179278 2.441482
0.180504 2.442546
0.181730 2.444034
0.182956 2.445945
0.184182 2.448278
0.185408 2.451031
0.186635 2.454201
0.187861 2.457786
0.189087 2.461783
0.190313 2.466189
0.191539 2.471002
0.192765 2.476216
0.193991 2.481827
0.195217 2.487833
0.196443 2.494227
0.197669 2.501006
0.198895 2.508164
0.200121 2.515695
0.201347 2.523595
0.202573 2.531856
0.203800 2.540474
0.205026 2.549442
0.206252 2.558753
0.207478 2.568401
0.208704 2.578379
0.209930 2.588681
0.211156 2.599297
0.212382 2.610223
0.213608 2.621449
0.214834 2.632969
0.216060 2.644774
0.217286 2.656857
0.218512 2.669209
0.219739 2.681823
0.220965 2.694691
0.222191 2.707803
0.223417 2.721153
0.224643 2.734730
0.225869 2.748527
0.227095 2.762534
0.228321 2.776744
0.229547 2.791147
0.230773 2.805734
0.231999 2.820497
0.233225 2.835425
0.234452 2.850510
0.235678 2.865743
0.236904 2.881114
0.238130 2.896613
0.239356 2.912232

0.239356 2.912232
0.243034 2.959700
0.246712 3.007874
0.250391 3.056459
0.254069 3.105134
0.257747 3.153539
0.261425 3.201256
0.265103 3.247776
0.268782 3.292466
0.272460 3.334495
0.276138 3.315802
0.279816 3.250754
0.283494 3.184083
0.287173 3.115976
0.290851 3.046618
0.294529 2.976187
0.298208 2.904852
0.301886 2.832769
0.305564 2.760077
0.309242 2.686897
0.312920 2.613327
0.316599 2.539446
0.320277 2.465308
0.323955 2.390942
0.327633 2.316357
0.331311 2.241537
0.334990 2.166445
0.338668 2.091028
0.342346 2.015214
0.346024 1.938917
0.349703 1.862043
0.353381 1.784489
0.357059 1.706148
0.360737 1.626914
0.364416 1.546684
0.368094 1.465360
0.371772 1.382856
0.375450 1.299097
0.379128 1.214026
0.382807 1.127601
0.386485 1.039804
0.390163 0.950635
0.393841 0.860119
0.397520 0.768304
0.401198 0.675262
0.404876 0.581087
0.408554 0.485895
0.412233 0.389823
0.415911 0.293024
0.419589 0.195666
0.423267 0.097929
0.426945 -0.000000

0.426945 -0.000000
0.429949 0.091446
0.432952 0.182790
0.435955 0.273932
0.438958 0.364773
0.441962 0.455214
0.444965 0.545159
0.447968 0.634517
0.450972 0.723197
0.453975 0.811113
0.456978 0.898186
0.459981 0.984339
0.462985 1.069502
0.465988 1.153611
0.468991 1.236609
0.471994 1.318446
0.474998 1.399080
0.478001 1.478477
0.481004 1.556611
0.484007 1.633464
0.487011 1.709029
0.490014 1.783304
0.493017 1.856300
0.496020 1.928033
0.499024 1.998527
0.502027 2.067815
0.505030 2.135934
0.508034 2.202930
0.511037 2.268848
0.514040 2.333740
0.517043 2.397656
0.520047 2.460647
0.523050 2.522759
0.526053 2.584033
0.529056 2.644504
0.532060 2.704190
0.535063 2.763099
0.538066 2.821215
0.541069 2.878500
0.544073 2.934883
0.547076 2.990250
0.550079 3.044438
0.553083 3.097214
0.556086 3.148258
0.559089 3.197131
0.562092 3.243238
0.565095 3.285786
0.568099 3.323730
0.571102 3.355757
0.574105 3.380333
0.577109 3.395902
0.580112 3.401248


0.000000 -0.003512
0.003467 0.093165
0.006934 0.185216
0.010401 0.276697
0.013869 0.367373
0.017336 0.457010
0.020803 0.545395
0.024270 0.632343
0.027737 0.717694
0.031205 0.801324
0.034672 0.883135
0.038139 0.963060
0.041606 1.041060
0.045073 1.117119
0.048540 1.191240
0.052008 1.263443
0.055475 1.333756
0.058942 1.402214
0.062409 1.468850
0.065876 1.533692
0.069344 1.596759
0.072811 1.658052
0.076278 1.717561
0.079745 1.775250
0.083212 1.831067
0.086679 1.884939
0.090147 1.936775
0.093614 1.986465
0.097081 2.033891
0.100548 2.078926
0.104015 2.121444
0.107482 2.161320
0.110950 2.198446
0.114417 2.232727
0.117884 2.264095
0.121351 2.292512
0.124818 2.317972
0.128285 2.340507
0.131753 2.360188
0.135220 2.377126
0.138687 2.391467
0.142154 2.403395
0.145621 2.413121
0.149089 2.420880
0.152556 2.426921
0.156023 2.431499
0.159490 2.434864
0.162957 2.437251
0.166424 2.438869
0.169892 2.439893
0.173359 2.440453
0.176826 2.440631

0.176826 2.440631
0.178052 2.441503
0.179278 2.444120
0.180504 2.448474
0.181730 2.454554
0.182956 2.462344
0.184182 2.471824
0.185408 2.482970
0.186635 2.495754
0.187861 2.510144
0.189087 2.526106
0.190313 2.543603
0.191539 2.562594
0.192765 2.583037
0.193991 2.604888
0.195217 2.628101
0.196443 2.652629
0.197669 2.678423
0.198895 2.705434
0.200121 2.733613
0.201347 2.762910
0.202573 2.793276
0.203800 2.824661
0.205026 2.857015
0.206252 2.890290
0.207478 2.924439
0.208704 2.959412
0.209930 2.995165
0.211156 3.031651
0.212382 3.068826
0.213608 3.106646
0.214834 3.145069
0.216060 3.184052
0.217286 3.223555
0.218512 3.263539
0.219739 3.303966
0.220965 3.344796
0.222191 3.385995
0.223417 3.427526
0.224643 3.469354
0.225869 3.511446
0.227095 3.553767
0.228321 3.596285
0.229547 3.638968
0.230773 3.681784
0.231999 3.724702
0.233225 3.767690
0.234452 3.810717
0.235678 3.853753
0.236904 3.866172
0.238130 3.853686
0.239356 3.840876

0.239356 3.840876
0.243034 3.800493
0.246712 3.757200
0.250391 3.711040
0.254069 3.662077
0.257747 3.610401
0.261425 3.556121
0.265103 3.499367
0.268782 3.440285
0.272460 3.379039
0.276138 3.372753
0.279816 3.405734
0.283494 3.431431
0.287173 3.447330
0.290851 3.450722
0.294529 3.439459
0.298208 3.412874
0.301886 3.372088
0.305564 3.319391
0.309242 3.257318
0.312920 3.188061
0.316599 3.113301
0.320277 3.034259
0.323955 2.951801
0.327633 2.866540
0.331311 2.778910
0.334990 2.689218
0.338668 2.597682
0.342346 2.504455
0.346024 2.409645
0.349703 2.313324
0.353381 2.215539
0.357059 2.116322
0.360737 2.015692
0.364416 1.913661
0.368094 1.810242
0.371772 1.705444
0.375450 1.599283
0.379128 1.491779
0.382807 1.382962
0.386485 1.272871
0.390163 1.161555
0.393841 1.049074
0.397520 0.935501
0.401198 0.820922
0.404876 0.705432
0.408554 0.589138
0.412233 0.472159
0.415911 0.354619
0.419589 0.236653
0.423267 0.118399
0.426945 0.000000

0.426945 0.000000
0.429949 0.091446
0.432952 0.182790
0.435955 0.273932
0.438958 0.364773
0.441962 0.455214
0.444965 0.545159
0.447968 0.634517
0.450972 0.723197
0.453975 0.811113
0.456978 0.898186
0.459981 0.984339
0.462985 1.069502
0.465988 1.153611
0.468991 1.236609
0.471994 1.318446
0.474998 1.399080
0.478001 1.478477
0.481004 1.556611
0.484007 1.633464
0.487011 1.709029
0.490014 1.783304
0.493017 1.856300
0.496020 1.928033
0.499024 1.998527
0.502027 2.067815
0.505030 2.135934
0.508034 2.202930
0.511037 2.268848
0.514040 2.333740
0.517043 2.397656
0.520047 2.460647
0.523050 2.522759
0.526053 2.584033
0.529056 2.644504
0.532060 2.704190
0.535063 2.763099
0.538066 2.821215
0.541069 2.878500
0.544073 2.934883
0.547076 2.990250
0.550079 3.044438
0.553083 3.097214
0.556086 3.148258
0.559089 3.197131
0.562092 3.243238
0.565095 3.285786
0.568099 3.323730
0.571102 3.355757
0.574105 3.380333
0.577109 3.395902
0.580112 3.401248


0.000000 -0.003264
0.003467 0.181083
0.006934 0.360120
0.010401 0.538486
0.013869 0.715895
0.017336 0.892058
0.020803 1.066705
0.024270 1.239587
0.027737 1.410483
0.031205 1.579197
0.034672 1.745565
0.038139 1.909449
0.041606 2.070738
0.045073 2.229351
0.048540 2.385225
0.052008 2.538320
0.055475 2.688610
0.058942 2.836081
0.062409 2.980727
0.065876 3.122543
0.069344 3.261521
0.072811 3.397650
0.076278 3.530907
0.079745 3.661257
0.083212 3.788648
0.086679 3.913014
0.090147 4.034268
0.093614 4.152307
0.097081 4.267010
0.100548 4.378237
0.104015 4.485834
0.107482 4.589628
0.110950 4.689425
0.114417 4.784989
0.117884 4.875965
0.121351 4.961458
0.124818 5.033925
0.128285 4.992990
0.131753 4.895340
0.135220 4.797984
0.138687 4.704064
0.142154 4.614675
0.145621 4.530655
0.149089 4.452787
0.152556 4.381833
0.156023 4.318531
0.159490 4.263583
0.162957 4.217636
0.166424 4.181257
0.169892 4.154917
0.173359 4.138968
0.176826 4.133627

0.176826 4.133627
0.178052 4.133536
0.179278 4.133264
0.180504 4.132808
0.181730 4.132170
0.182956 4.131348
0.184182 4.130340
0.185408 4.129146
0.186635 4.127763
0.187861 4.126190
0.189087 4.124424
0.190313 4.122462
0.191539 4.120303
0.192765 4.117942
0.193991 4.115378
0.195217 4.112606
0.196443 4.109624
0.197669 4.106426
0.198895 4.103011
0.200121 4.099373
0.201347 4.095509
0.202573 4.091414
0.203800 4.087084
0.205026 4.082515
0.206252 4.077702
0.207478 4.072642
0.208704 4.067328
0.209930 4.061758
0.211156 4.055927
0.212382 4.049829
0.213608 4.043461
0.214834 4.036819
0.216060 4.029898
0.217286 4.022694
0.218512 4.015203
0.219739 4.007421
0.220965 3.999345
0.222191 3.990970
0.223417 3.982294
0.224643 3.973312
0.225869 3.964023
0.227095 3.954423
0.228321 3.944510
0.229547 3.934280
0.230773 3.923733
0.231999 3.912866
0.233225 3.901678
0.234452 3.890167
0.235678 3.878331
0.236904 3.896765
0.238130 3.939721
0.239356 3.982590

0.239356 3.982590
0.243034 4.110326
0.246712 4.235964
0.250391 4.358284
0.254069 4.475656
0.257747 4.566703
0.261425 4.509402
0.265103 4.451225
0.268782 4.392766
0.272460 4.334825
0.276138 4.278498
0.279816 4.225287
0.283494 4.177205
0.287173 4.136778
0.290851 4.106734
0.294529 4.089244
0.298208 4.084996
0.301886 4.092892
0.305564 4.110661
0.309242 4.135784
0.312920 4.166077
0.316599 4.199862
0.320277 4.172581
0.323955 4.079249
0.327633 3.981824
0.331311 3.880356
0.334990 3.774880
0.338668 3.665419
0.342346 3.551990
0.346024 3.434604
0.349703 3.313273
0.353381 3.188010
0.357059 3.058834
0.360737 2.925774
0.364416 2.788869
0.368094 2.648173
0.371772 2.503755
0.375450 2.355703
0.379128 2.204125
0.382807 2.049150
0.386485 1.890928
0.390163 1.729630
0.393841 1.565452
0.397520 1.398609
0.401198 1.229339
0.404876 1.057897
0.408554 0.884559
0.412233 0.709613
0.415911 0.533365
0.419589 0.356130
0.423267 0.178231
0.426945 0.000000

0.426945 0.000000
0.429949 0.142130
0.432952 0.284137
0.435955 0.425898
0.438958 0.567290
0.441962 0.708195
0.444965 0.848495
0.447968 0.988075
0.450972 1.126825
0.453975 1.264639
0.456978 1.401415
0.459981 1.537056
0.462985 1.671470
0.465988 1.804573
0.468991 1.936285
0.471994 2.066534
0.474998 2.195253
0.478001 2.322384
0.481004 2.447874
0.484007 2.571677
0.487011 2.693755
0.490014 2.814075
0.493017 2.932611
0.496020 3.049341
0.499024 3.164249
0.502027 3.277323
0.505030 3.388554
0.508034 3.497934
0.511037 3.605457
0.514040 3.711116
0.517043 3.814900
0.520047 3.916793
0.523050 4.016774
0.526053 4.114809
0.529056 4.210853
0.532060 4.304842
0.535063 4.396692
0.538066 4.455988
0.541069 4.422015
0.544073 4.386916
0.547076 4.350861
0.550079 4.314069
0.553083 4.276829
0.556086 4.239517
0.559089 4.202624
0.562092 4.166791
0.565095 4.132859
0.568099 4.101908
0.571102 4.075286
0.574105 4.054550
0.577109 4.041279
0.580112 4.036697


0.000000 4.948247
0.003467 4.948843
0.006934 4.950585
0.010401 4.953416
0.013869 4.957239
0.017336 4.961928
0.020803 4.967332
0.024270 4.973282
0.027737 4.979599
0.031205 4.986104
0.034672 4.992626
0.038139 4.999007
0.041606 5.005115
0.045073 5.010845
0.048540 5.016123
0.052008 5.020911
0.055475 5.025209
0.058942 5.029048
0.062409 5.032491
0.065876 5.035631
0.069344 5.038579
0.072811 5.041463
0.076278 5.044418
0.079745 5.047579
0.083212 5.051076
0.086679 5.055024
0.090147 5.059520
0.093614 5.064638
0.097081 5.070425
0.100548 5.076900
0.104015 5.084052
0.107482 5.091846
0.110950 5.100217
0.114417 5.109083
0.117884 5.118339
0.121351 5.127869
0.124818 5.119722
0.128285 5.133851
0.131753 5.156836
0.135220 5.166190
0.138687 5.175189
0.142154 5.183726
0.145621 5.191703
0.149089 5.199036
0.152556 5.205650
0.156023 5.211487
0.159490 5.216498
0.162957 5.220644
0.166424 5.223896
0.169892 5.226233
0.173359 5.227640
0.176826 5.228110

0.176826 5.228110
0.178052 5.227958
0.179278 5.227500
0.180504 5.226736
0.181730 5.225666
0.182956 5.224291
0.184182 5.222610
0.185408 5.220623
0.186635 5.218329
0.187861 5.215729
0.189087 5.212822
0.190313 5.209607
0.191539 5.206085
0.192765 5.202255
0.193991 5.198116
0.195217 5.193669
0.196443 5.188913
0.197669 5.183847
0.198895 5.178471
0.200121 5.172784
0.201347 5.166788
0.202573 5.160480
0.203800 5.153860
0.205026 5.146929
0.206252 5.139686
0.207478 5.132131
0.208704 5.124263
0.209930 5.116083
0.211156 5.107591
0.212382 5.098786
0.213608 5.089668
0.214834 5.080239
0.216060 5.070497
0.217286 5.060444
0.218512 5.050080
0.219739 5.039405
0.220965 5.028421
0.222191 5.017127
0.223417 5.005526
0.224643 4.993619
0.225869 4.981405
0.227095 4.968888
0.228321 4.956069
0.229547 4.942949
0.230773 4.929531
0.231999 4.915818
0.233225 4.901810
0.234452 4.887512
0.235678 4.872927
0.236904 4.858056
0.238130 4.842906
0.239356 4.827478

0.239356 4.827478
0.243034 4.779577
0.246712 4.729357
0.250391 4.676987
0.254069 4.622679
0.257747 4.585729
0.261425 4.684981
0.265103 4.768360
0.268782 4.829893
0.272460 4.865426
0.276138 4.875616
0.279816 4.865066
0.283494 4.838976
0.287173 4.801295
0.290851 4.754613
0.294529 4.700569
0.298208 4.640211
0.301886 4.574232
0.305564 4.503105
0.309242 4.427165
0.312920 4.346653
0.316599 4.261748
0.320277 4.235911
0.323955 4.273342
0.327633 4.311520
0.331311 4.349976
0.334990 4.388361
0.338668 4.426405
0.342346 4.463899
0.346024 4.500670
0.349703 4.536576
0.353381 4.571498
0.357059 4.605330
0.360737 4.637978
0.364416 4.669358
0.368094 4.699392
0.371772 4.728006
0.375450 4.755132
0.379128 4.780706
0.382807 4.804663
0.386485 4.826947
0.390163 4.847501
0.393841 4.866271
0.397520 4.883210
0.401198 4.898271
0.404876 4.911413
0.408554 4.922598
0.412233 4.931795
0.415911 4.938977
0.419589 4.944122
0.423267 4.947215
0.426945 4.948248

0.426945 4.948248
0.429949 4.947935
0.432952 4.946999
0.435955 4.945444
0.438958 4.943275
0.441962 4.940501
0.444965 4.937131
0.447968 4.933174
0.450972 4.928640
0.453975 4.923539
0.456978 4.917877
0.459981 4.911658
0.462985 4.904883
0.465988 4.897548
0.468991 4.889643
0.471994 4.881154
0.474998 4.872059
0.478001 4.862331
0.481004 4.851935
0.484007 4.840829
0.487011 4.828967
0.490014 4.816295
0.493017 4.802756
0.496020 4.788287
0.499024 4.772824
0.502027 4.756298
0.505030 4.738645
0.508034 4.719797
0.511037 4.699693
0.514040 4.678275
0.517043 4.655493
0.520047 4.631306
0.523050 4.605681
0.526053 4.578602
0.529056 4.550066
0.532060 4.520090
0.535063 4.488710
0.538066 4.455988
0.541069 4.422015
0.544073 4.386916
0.547076 4.350861
0.550079 4.314069
0.553083 4.276829
0.556086 4.239517
0.559089 4.202624
0.562092 4.166791
0.565095 4.132859
0.568099 4.101908
0.571102 4.075286
0.574105 4.054550
0.577109 4.041279
0.580112 4.036697


0.000000 4.948247
0.003467 4.948843
0.006934 4.950586
0.010401 4.953416
0.013869 4.957239
0.017336 4.961928
0.020803 4.967332
0.024270 4.973282
0.027737 4.979599
0.031205 4.986104
0.034672 4.992626
0.038139 4.999007
0.041606 5.005115
0.045073 5.010845
0.048540 5.016123
0.052008 5.020912
0.055475 5.025209
0.058942 5.029048
0.062409 5.032492
0.065876 5.035631
0.069344 5.038579
0.072811 5.041463
0.076278 5.044418
0.079745 5.047579
0.083212 5.051076
0.086679 5.055024
0.090147 5.059521
0.093614 5.064638
0.097081 5.070425
0.100548 5.076900
0.104015 5.084052
0.107482 5.091846
0.110950 5.100218
0.114417 5.109083
0.117884 5.118339
0.121351 5.127869
0.124818 5.137549
0.128285 5.147248
0.131753 5.156837
0.135220 5.166190
0.138687 5.175190
0.142154 5.183727
0.145621 5.191704
0.149089 5.199036
0.152556 5.205650
0.156023 5.211488
0.159490 5.216498
0.162957 5.220644
0.166424 5.223896
0.169892 5.226233
0.173359 5.227640
0.176826 5.228111

0.176826 5.228111
0.178052 5.228214
0.179278 5.228525
0.180504 5.229043
0.181730 5.229765
0.182956 5.230689
0.184182 5.231812
0.185408 5.233129
0.186635 5.234637
0.187861 5.236329
0.189087 5.238201
0.190313 5.240245
0.191539 5.242454
0.192765 5.244821
0.193991 5.247337
0.195217 5.249993
0.196443 5.252780
0.197669 5.255689
0.198895 5.258708
0.200121 5.261828
0.201347 5.265036
0.202573 5.268322
0.203800 5.271674
0.205026 5.275080
0.206252 5.278527
0.207478 5.282004
0.208704 5.285497
0.209930 5.288994
0.211156 5.292482
0.212382 5.295949
0.213608 5.299380
0.214834 5.302765
0.216060 5.306089
0.217286 5.309341
0.218512 5.312507
0.219739 5.315577
0.220965 5.318538
0.222191 5.321379
0.223417 5.324088
0.224643 5.326655
0.225869 5.329070
0.227095 5.331324
0.228321 5.333407
0.229547 5.335311
0.230773 5.337029
0.231999 5.338555
0.233225 5.339882
0.234452 5.341008
0.235678 5.341929
0.236904 5.342643
0.238130 5.343150
0.239356 5.343453

0.239356 5.343453
0.243034 5.343188
0.246712 5.341391
0.250391 5.338630
0.254069 5.335963
0.257747 5.335245
0.261425 5.339570
0.265103 5.353631
0.268782 5.383098
0.272460 5.369158
0.276138 5.354824
0.279816 5.340874
0.283494 5.327334
0.287173 5.314219
0.290851 5.301534
0.294529 5.289278
0.298208 5.277436
0.301886 5.265989
0.305564 5.254903
0.309242 5.244142
0.312920 5.233659
0.316599 5.223403
0.320277 5.213316
0.323955 5.203339
0.327633 5.193411
0.331311 5.183474
0.334990 5.173469
0.338668 5.163346
0.342346 5.153060
0.346024 5.142576
0.349703 5.131871
0.353381 5.120934
0.357059 5.109767
0.360737 5.098390
0.364416 5.086836
0.368094 5.075154
0.371772 5.063410
0.375450 5.051682
0.379128 5.040061
0.382807 5.028649
0.386485 5.017555
0.390163 5.006897
0.393841 4.996792
0.397520 4.987361
0.401198 4.978719
0.404876 4.970977
0.408554 4.964237
0.412233 4.958590
0.415911 4.954114
0.419589 4.950870
0.423267 4.948906
0.426945 4.948248

0.426945 4.948248
0.429949 4.947935
0.432952 4.946999
0.435955 4.945444
0.438958 4.943275
0.441962 4.940501
0.444965 4.937131
0.447968 4.933174
0.450972 4.928640
0.453975 4.923539
0.456978 4.917877
0.459981 4.911658
0.462985 4.904883
0.465988 4.897548
0.468991 4.889643
0.471994 4.881154
0.474998 4.872059
0.478001 4.862331
0.481004 4.851935
0.484007 4.840829
0.487011 4.828967
0.490014 4.816295
0.493017 4.802756
0.496020 4.788287
0.499024 4.772824
0.502027 4.756298
0.505030 4.738645
0.508034 4.719797
0.511037 4.699693
0.514040 4.678275
0.517043 4.655493
0.520047 4.631306
0.523050 4.605681
0.526053 4.578602
0.529056 4.550066
0.532060 4.520090
0.535063 4.488710
0.538066 4.486287
0.541069 4.573482
0.544073 4.658084
0.547076 4.739848
0.550079 4.818462
0.553083 4.893529
0.556086 4.964550
0.559089 5.030903
0.562092 5.091820
0.565095 5.146376
0.568099 5.193490
0.571102 5.231968
0.574105 5.260594
0.577109 5.278283
0.580112 5.284271


0.000000 7.645025
0.003467 7.642949
0.006934 7.636796
0.010401 7.626539
0.013869 7.612136
0.017336 7.593530
0.020803 7.570655
0.024270 7.543440
0.027737 7.511808
0.031205 7.475688
0.034672 7.435015
0.038139 7.389738
0.041606 7.339820
0.045073 7.285247
0.048540 7.226029
0.052008 7.162203
0.055475 7.093835
0.058942 7.021021
0.062409 6.943888
0.065876 6.862593
0.069344 6.777322
0.072811 6.688288
0.076278 6.595729
0.079745 6.499907
0.083212 6.401102
0.086679 6.299614
0.090147 6.195760
0.093614 6.089869
0.097081 5.982290
0.100548 5.873381
0.104015 5.763525
0.107482 5.653122
0.110950 5.542608
0.114417 5.432477
0.117884 5.323366
0.121351 5.216484
0.124818 5.137549
0.128285 5.147248
0.131753 5.202625
0.135220 5.269525
0.138687 5.331951
0.142154 5.389397
0.145621 5.441654
0.149089 5.488602
0.152556 5.530157
0.156023 5.566259
0.159490 5.596864
0.162957 5.621939
0.166424 5.641463
0.169892 5.655418
0.173359 5.663795
0.176826 5.666588

0.176826 5.666588
0.178052 5.666514
0.179278 5.666293
0.180504 5.665924
0.181730 5.665408
0.182956 5.664745
0.184182 5.663937
0.185408 5.662983
0.186635 5.661885
