# distance  frequency (bands are separated by blank lines)
# End points of segments: 
#   0.00000000 0.17682590 0.23935580 0.42694550 0.58011180 
0.000000 -0.007513
0.003467 0.089830
0.006934 0.178861
0.010401 0.267342
0.013869 0.355110
0.017336 0.441976
0.020803 0.527757
0.024270 0.612296
0.027737 0.695458
0.031205 0.777135
0.034672 0.857244
0.038139 0.935727
0.041606 1.012548
0.045073 1.087690
0.048540 1.161151
0.052008 1.232940
0.055475 1.303072
0.058942 1.371562
0.062409 1.438424
0.065876 1.503664
0.069344 1.567277
0.072811 1.629244
0.076278 1.689531
0.079745 1.748088
0.083212 1.804846
0.086679 1.859722
0.090147 1.912619
0.093614 1.963428
0.097081 2.012033
0.100548 2.058313
0.104015 2.102149
0.107482 2.143430
0.110950 2.182056
0.114417 2.217942
0.117884 2.251027
0.121351 2.281276
0.124818 2.308681
0.128285 2.333268
0.131753 2.355096
0.135220 2.374256
0.138687 2.390870
0.142154 2.405089
0.145621 2.417087
0.149089 2.427058
0.152556 2.435205
0.156023 2.441736
0.159490 2.446853
0.162957 2.450746
0.166424 2.453583
0.169892 2.455504
0.173359 2.456614
0.176826 2.456976

0.176826 2.456976
0.178052 2.457190
0.179278 2.457827
0.180504 2.458889
0.181730 2.460374
0.182956 2.462283
0.184182 2.464612
0.185408 2.467362
0.186635 2.470531
0.187861 2.474116
0.189087 2.478116
0.190313 2.482527
0.191539 2.487348
0.192765 2.492575
0.193991 2.498205
0.195217 2.504235
0.196443 2.510662
0.197669 2.517480
0.198895 2.524686
0.200121 2.532276
0.201347 2.540245
0.202573 2.548588
0.203800 2.557301
0.205026 2.566377
0.206252 2.575812
0.207478 2.585600
0.208704 2.595735
0.209930 2.606211
0.211156 2.617021
0.212382 2.628160
0.213608 2.639620
0.214834 2.651395
0.216060 2.663477
0.217286 2.675860
0.218512 2.688537
0.219739 2.701499
0.220965 2.714739
0.222191 2.728249
0.223417 2.742022
0.224643 2.756048
0.225869 2.770320
0.227095 2.784829
0.228321 2.799568
0.229547 2.814525
0.230773 2.829694
0.231999 2.845065
0.233225 2.860629
0.234452 2.876376
0.235678 2.892297
0.236904 2.908382
0.238130 2.924622
0.239356 2.941006

0.239356 2.941006
0.243034 2.990924
0.246712 3.041764
0.250391 3.093222
0.254069 3.144969
0.257747 3.196638
0.261425 3.247811
0.265103 3.297996
0.268782 3.346582
0.272460 3.376109
0.276138 3.313358
0.279816 3.248728
0.283494 3.182379
0.287173 3.114470
0.290851 3.045163
0.294529 2.974616
0.298208 2.902978
0.301886 2.830394
0.305564 2.756993
0.309242 2.682895
0.312920 2.608203
0.316599 2.533004
0.320277 2.457367
0.323955 2.381344
0.327633 2.304970
0.331311 2.228261
0.334990 2.151217
0.338668 2.073822
0.342346 1.996045
0.346024 1.917844
0.349703 1.839165
0.353381 1.759948
0.357059 1.680125
0.360737 1.599626
0.364416 1.518381
0.368094 1.436322
0.371772 1.353386
0.375450 1.269517
0.379128 1.184671
0.382807 1.098814
0.386485 1.011928
0.390163 0.924011
0.393841 0.835077
0.397520 0.745159
0.401198 0.654307
0.404876 0.562592
0.408554 0.470099
0.412233 0.376931
0.415911 0.283204
0.419589 0.189046
0.423267 0.094597
0.426945 -0.000000

0.426945 -0.000000
0.429949 0.093198
0.432952 0.186285
0.435955 0.279152
0.438958 0.371690
0.441962 0.463794
0.444965 0.555364
0.447968 0.646301
0.450972 0.736517
0.453975 0.825925
0.456978 0.914449
0.459981 1.002017
0.462985 1.088569
0.465988 1.174050
0.468991 1.258416
0.471994 1.341631
0.474998 1.423669
0.478001 1.504514
0.481004 1.584156
0.484007 1.662596
0.487011 1.739842
0.490014 1.815911
0.493017 1.890824
0.496020 1.964611
0.499024 2.037305
0.502027 2.108943
0.505030 2.179562
0.508034 2.249205
0.511037 2.317910
0.514040 2.385713
0.517043 2.452647
0.520047 2.518739
0.523050 2.584007
0.526053 2.648458
0.529056 2.712088
0.532060 2.774875
0.535063 2.836780
0.538066 2.897738
0.541069 2.957660
0.544073 3.016422
0.547076 3.073856
0.550079 3.129746
0.553083 3.183807
0.556086 3.235670
0.559089 3.284860
0.562092 3.330766
0.565095 3.372609
0.568099 3.409422
0.571102 3.440054
0.574105 3.463239
0.577109 3.477761
0.580112 3.482715


0.000000 -0.003521
0.003467 0.089990
0.006934 0.178938
0.010401 0.267391
0.013869 0.355146
0.017336 0.442003
0.020803 0.527779
0.024270 0.612314
0.027737 0.695473
0.031205 0.777148
0.034672 0.857255
0.038139 0.935737
0.041606 1.012556
0.045073 1.087698
0.048540 1.161158
0.052008 1.232946
0.055475 1.303077
0.058942 1.371567
0.062409 1.438429
0.065876 1.503669
0.069344 1.567281
0.072811 1.629248
0.076278 1.689535
0.079745 1.748091
0.083212 1.804849
0.086679 1.859725
0.090147 1.912622
0.093614 1.963431
0.097081 2.012035
0.100548 2.058315
0.104015 2.102152
0.107482 2.143433
0.110950 2.182058
0.114417 2.217944
0.117884 2.251029
0.121351 2.281278
0.124818 2.308683
0.128285 2.333270
0.131753 2.355098
0.135220 2.374258
0.138687 2.390872
0.142154 2.405090
0.145621 2.417089
0.149089 2.427060
0.152556 2.435207
0.156023 2.441737
0.159490 2.446854
0.162957 2.450747
0.166424 2.453585
0.169892 2.455506
0.173359 2.456615
0.176826 2.456978

0.176826 2.456978
0.178052 2.457852
0.179278 2.460477
0.180504 2.464844
0.181730 2.470941
0.182956 2.478754
0.184182 2.488260
0.185408 2.499437
0.186635 2.512256
0.187861 2.526686
0.189087 2.542691
0.190313 2.560234
0.191539 2.579275
0.192765 2.599770
0.193991 2.621675
0.195217 2.644944
0.196443 2.669529
0.197669 2.695381
0.198895 2.722452
0.200121 2.750690
0.201347 2.780046
0.202573 2.810470
0.203800 2.841911
0.205026 2.874320
0.206252 2.907648
0.207478 2.941847
0.208704 2.976867
0.209930 3.012664
0.211156 3.049189
0.212382 3.086399
0.213608 3.124250
0.214834 3.162697
0.216060 3.201700
0.217286 3.241217
0.218512 3.281209
0.219739 3.321636
0.220965 3.362461
0.222191 3.403647
0.223417 3.445158
0.224643 3.486958
0.225869 3.529014
0.227095 3.571292
0.228321 3.613760
0.229547 3.656384
0.230773 3.699133
0.231999 3.741976
0.233225 3.784882
0.234452 3.827819
0.235678 3.870758
0.236904 3.860100
0.238130 3.847575
0.239356 3.834739

0.239356 3.834739
0.243034 3.794362
0.246712 3.751196
0.250391 3.705274
0.254069 3.656650
0.257747 3.605395
0.261425 3.551599
0.265103 3.495370
0.268782 3.436828
0.272460 3.392782
0.276138 3.435544
0.279816 3.473412
0.283494 3.504368
0.287173 3.525720
0.290851 3.534258
0.294529 3.527029
0.298208 3.502630
0.301886 3.461997
0.305564 3.407819
0.309242 3.343234
0.312920 3.270947
0.316599 3.192985
0.320277 3.110775
0.323955 3.025298
0.327633 2.937228
0.331311 2.847023
0.334990 2.754994
0.338668 2.661347
0.342346 2.566211
0.346024 2.469662
0.349703 2.371735
0.353381 2.272439
0.357059 2.171759
0.360737 2.069671
0.364416 1.966146
0.368094 1.861151
0.371772 1.754660
0.375450 1.646652
0.379128 1.537119
0.382807 1.426067
0.386485 1.313516
0.390163 1.199504
0.393841 1.084088
0.397520 0.967342
0.401198 0.849360
0.404876 0.730252
0.408554 0.610145
0.412233 0.489181
0.415911 0.367515
0.419589 0.245312
0.423267 0.122747
0.426945 -0.000000

0.426945 -0.000000
0.429949 0.093198
0.432952 0.186285
0.435955 0.279152
0.438958 0.371690
0.441962 0.463794
0.444965 0.555364
0.447968 0.646301
0.450972 0.736517
0.453975 0.825925
0.456978 0.914449
0.459981 1.002017
0.462985 1.088569
0.465988 1.174050
0.468991 1.258416
0.471994 1.341631
0.474998 1.423669
0.478001 1.504514
0.481004 1.584156
0.484007 1.662596
0.487011 1.739842
0.490014 1.815911
0.493017 1.890824
0.496020 1.964611
0.499024 2.037305
0.502027 2.108943
0.505030 2.179562
0.508034 2.249205
0.511037 2.317910
0.514040 2.385713
0.517043 2.452647
0.520047 2.518739
0.523050 2.584007
0.526053 2.648458
0.529056 2.712088
0.532060 2.774875
0.535063 2.836780
0.538066 2.897738
0.541069 2.957660
0.544073 3.016422
0.547076 3.073856
0.550079 3.129746
0.553083 3.183807
0.556086 3.235670
0.559089 3.284860
0.562092 3.330766
0.565095 3.372609
0.568099 3.409422
0.571102 3.440054
0.574105 3.463239
0.577109 3.477761
0.580112 3.482715


0.000000 -0.003247
0.003467 0.186132
0.006934 0.370186
0.010401 0.553611
0.013869 0.736139
0.017336 0.917497
0.020803 1.097425
0.024270 1.275682
0.027737 1.452048
0.031205 1.626325
0.034672 1.798337
0.038139 1.967930
0.041606 2.134972
0.045073 2.299351
0.048540 2.460971
0.052008 2.619751
0.055475 2.775621
0.058942 2.928521
0.062409 3.078393
0.065876 3.225180
0.069344 3.368827
0.072811 3.509270
0.076278 3.646442
0.079745 3.780266
0.083212 3.910656
0.086679 4.037518
0.090147 4.160746
0.093614 4.280228
0.097081 4.395841
0.100548 4.507459
0.104015 4.614951
0.107482 4.718185
0.110950 4.817027
0.114417 4.911344
0.117884 5.000993
0.121351 5.085655
0.124818 5.072385
0.128285 4.969502
0.131753 4.869602
0.135220 4.773459
0.138687 4.681694
0.142154 4.594934
0.145621 4.513817
0.149089 4.438987
0.152556 4.371082
0.156023 4.310724
0.159490 4.258501
0.162957 4.214954
0.166424 4.180555
0.169892 4.155691
0.173359 4.140654
0.176826 4.135621

0.176826 4.135621
0.178052 4.135523
0.179278 4.135228
0.180504 4.134735
0.181730 4.134045
0.182956 4.133156
0.184182 4.132068
0.185408 4.130779
0.186635 4.129288
0.187861 4.127593
0.189087 4.125693
0.190313 4.123585
0.191539 4.121267
0.192765 4.118737
0.193991 4.115993
0.195217 4.113032
0.196443 4.109850
0.197669 4.106446
0.198895 4.102815
0.200121 4.098956
0.201347 4.094863
0.202573 4.090536
0.203800 4.085969
0.205026 4.081159
0.206252 4.076103
0.207478 4.070798
0.208704 4.065239
0.209930 4.059423
0.211156 4.053347
0.212382 4.047007
0.213608 4.040400
0.214834 4.033522
0.216060 4.026370
0.217286 4.018940
0.218512 4.011229
0.219739 4.003235
0.220965 3.994954
0.222191 3.986383
0.223417 3.977519
0.224643 3.968361
0.225869 3.958905
0.227095 3.949149
0.228321 3.939092
0.229547 3.928730
0.230773 3.918063
0.231999 3.907089
0.233225 3.895807
0.234452 3.884215
0.235678 3.872313
0.236904 3.913667
0.238130 3.956514
0.239356 3.999269

0.239356 3.999269
0.243034 4.126643
0.246712 4.251926
0.250391 4.373982
0.254069 4.491340
0.257747 4.601945
0.261425 4.624428
0.265103 4.562473
0.268782 4.499645
0.272460 4.436699
0.276138 4.374681
0.279816 4.315056
0.283494 4.259870
0.287173 4.211861
0.290851 4.174292
0.294529 4.150182
0.298208 4.141006
0.301886 4.145901
0.305564 4.162251
0.309242 4.186989
0.312920 4.217471
0.316599 4.251724
0.320277 4.217332
0.323955 4.122026
0.327633 4.022585
0.331311 3.919077
0.334990 3.811553
0.338668 3.700050
0.342346 3.584596
0.346024 3.465214
0.349703 3.341923
0.353381 3.214746
0.357059 3.083706
0.360737 2.948838
0.364416 2.810185
0.368094 2.667803
0.371772 2.521762
0.375450 2.372153
0.379128 2.219081
0.382807 2.062675
0.386485 1.903083
0.390163 1.740475
0.393841 1.575041
0.397520 1.406995
0.401198 1.236568
0.404876 1.064012
0.408554 0.889596
0.412233 0.713604
0.415911 0.536336
0.419589 0.358099
0.423267 0.179213
0.426945 -0.000000

0.426945 0.000000
0.429949 0.141628
0.432952 0.283135
0.435955 0.424400
0.438958 0.565303
0.441962 0.705729
0.444965 0.845564
0.447968 0.984698
0.450972 1.123027
0.453975 1.260449
0.456978 1.396871
0.459981 1.532204
0.462985 1.666366
0.465988 1.799282
0.468991 1.930885
0.471994 2.061111
0.474998 2.189908
0.478001 2.317228
0.481004 2.443029
0.484007 2.567277
0.487011 2.689941
0.490014 2.811000
0.493017 2.930431
0.496020 3.048219
0.499024 3.164351
0.502027 3.278812
0.505030 3.391592
0.508034 3.502676
0.511037 3.612048
0.514040 3.719688
0.517043 3.825569
0.520047 3.929656
0.523050 4.031904
0.526053 4.132256
0.529056 4.230637
0.532060 4.326953
0.535063 4.421088
0.538066 4.512895
0.541069 4.518622
0.544073 4.487154
0.547076 4.454922
0.550079 4.422123
0.553083 4.389025
0.556086 4.355975
0.559089 4.323433
0.562092 4.291994
0.565095 4.262419
0.568099 4.235664
0.571102 4.212868
0.574105 4.195286
0.577109 4.184128
0.580112 4.180297


0.000000 5.038803
0.003467 5.039449
0.006934 5.041342
0.010401 5.044427
0.013869 5.048614
0.017336 5.053784
0.020803 5.059795
0.024270 5.066485
0.027737 5.073683
0.031205 5.081215
0.034672 5.088910
0.038139 5.096611
0.041606 5.104179
0.045073 5.111496
0.048540 5.118475
0.052008 5.125057
0.055475 5.131216
0.058942 5.136956
0.062409 5.142311
0.065876 5.147339
0.069344 5.152121
0.072811 5.156752
0.076278 5.161338
0.079745 5.165989
0.083212 5.170811
0.086679 5.175902
0.090147 5.181347
0.093614 5.187213
0.097081 5.193547
0.100548 5.200373
0.104015 5.207691
0.107482 5.215479
0.110950 5.223692
0.114417 5.232268
0.117884 5.241125
0.121351 5.179101
0.124818 5.166647
0.128285 5.241526
0.131753 5.277417
0.135220 5.286173
0.138687 5.294592
0.142154 5.302578
0.145621 5.310045
0.149089 5.316914
0.152556 5.323117
0.156023 5.328597
0.159490 5.333306
0.162957 5.337207
0.166424 5.340270
0.169892 5.342472
0.173359 5.343799
0.176826 5.344243

0.176826 5.344243
0.178052 5.344102
0.179278 5.343680
0.180504 5.342977
0.181730 5.341992
0.182956 5.340724
0.184182 5.339174
0.185408 5.337340
0.186635 5.335222
0.187861 5.332818
0.189087 5.330129
0.190313 5.327151
0.191539 5.323885
0.192765 5.320329
0.193991 5.316481
0.195217 5.312340
0.196443 5.307905
0.197669 5.303173
0.198895 5.298143
0.200121 5.292813
0.201347 5.287181
0.202573 5.281246
0.203800 5.275006
0.205026 5.268458
0.206252 5.261601
0.207478 5.254433
0.208704 5.246951
0.209930 5.239155
0.211156 5.231043
0.212382 5.222612
0.213608 5.213861
0.214834 5.204788
0.216060 5.195392
0.217286 5.185671
0.218512 5.175624
0.219739 5.165251
0.220965 5.154548
0.222191 5.143517
0.223417 5.132156
0.224643 5.120464
0.225869 5.108441
0.227095 5.096087
0.228321 5.083402
0.229547 5.070387
0.230773 5.057040
0.231999 5.043364
0.233225 5.029360
0.234452 5.015028
0.235678 5.000370
0.236904 4.985388
0.238130 4.970085
0.239356 4.954462

0.239356 4.954462
0.243034 4.905712
0.246712 4.854221
0.250391 4.800130
0.254069 4.743625
0.257747 4.684952
0.261425 4.702804
0.265103 4.789621
0.268782 4.856990
0.272460 4.900141
0.276138 4.917823
0.279816 4.913055
0.283494 4.890698
0.287173 4.855067
0.290851 4.809224
0.294529 4.755177
0.298208 4.694230
0.301886 4.627246
0.305564 4.554812
0.309242 4.477341
0.312920 4.395134
0.316599 4.308409
0.320277 4.288361
0.323955 4.326427
0.327633 4.365258
0.331311 4.404391
0.334990 4.443489
0.338668 4.482305
0.342346 4.520650
0.346024 4.558374
0.349703 4.595354
0.353381 4.631482
0.357059 4.666661
0.360737 4.700800
0.364416 4.733811
0.368094 4.765605
0.371772 4.796095
0.375450 4.825193
0.379128 4.852807
0.382807 4.878847
0.386485 4.903224
0.390163 4.925845
0.393841 4.946625
0.397520 4.965478
0.401198 4.982324
0.404876 4.997088
0.408554 5.009703
0.412233 5.020110
0.415911 5.028258
0.419589 5.034107
0.423267 5.037628
0.426945 5.038804

0.426945 5.038804
0.429949 5.038440
0.432952 5.037349
0.435955 5.035537
0.438958 5.033011
0.441962 5.029779
0.444965 5.025854
0.447968 5.021249
0.450972 5.015979
0.453975 5.010058
0.456978 5.003500
0.459981 4.996318
0.462985 4.988523
0.465988 4.980124
0.468991 4.971125
0.471994 4.961527
0.474998 4.951328
0.478001 4.940519
0.481004 4.929086
0.484007 4.917012
0.487011 4.904273
0.490014 4.890838
0.493017 4.876675
0.496020 4.861746
0.499024 4.846008
0.502027 4.829417
0.505030 4.811927
0.508034 4.793490
0.511037 4.774060
0.514040 4.753591
0.517043 4.732044
0.520047 4.709381
0.523050 4.685574
0.526053 4.660604
0.529056 4.634462
0.532060 4.607158
0.535063 4.578714
0.538066 4.549177
0.541069 4.518622
0.544073 4.487154
0.547076 4.454922
0.550079 4.422123
0.553083 4.389025
0.556086 4.355975
0.559089 4.323433
0.562092 4.291994
0.565095 4.262419
0.568099 4.235664
0.571102 4.212868
0.574105 4.195286
0.577109 4.184128
0.580112 4.180297


0.000000 5.038804
0.003467 5.039450
0.006934 5.041342
0.010401 5.044427
0.013869 5.048614
0.017336 5.053784
0.020803 5.059795
0.024270 5.066485
0.027737 5.073683
0.031205 5.081215
0.034672 5.088910
0.038139 5.096612
0.041606 5.104179
0.045073 5.111496
0.048540 5.118475
0.052008 5.125057
0.055475 5.131216
0.058942 5.136956
0.062409 5.142311
0.065876 5.147339
0.069344 5.152121
0.072811 5.156752
0.076278 5.161339
0.079745 5.165989
0.083212 5.170811
0.086679 5.175902
0.090147 5.181347
0.093614 5.187213
0.097081 5.193547
0.100548 5.200373
0.104015 5.207691
0.107482 5.215479
0.110950 5.223693
0.114417 5.232268
0.117884 5.241126
0.121351 5.250173
0.124818 5.259309
0.128285 5.268426
0.131753 5.277417
0.135220 5.286173
0.138687 5.294592
0.142154 5.302579
0.145621 5.310045
0.149089 5.316914
0.152556 5.323117
0.156023 5.328597
0.159490 5.333306
0.162957 5.337207
0.166424 5.340270
0.169892 5.342472
0.173359 5.343799
0.176826 5.344243

0.176826 5.344243
0.178052 5.344339
0.179278 5.344626
0.180504 5.345103
0.181730 5.345770
0.182956 5.346622
0.184182 5.347657
0.185408 5.348872
0.186635 5.350261
0.187861 5.351820
0.189087 5.353543
0.190313 5.355424
0.191539 5.357455
0.192765 5.359629
0.193991 5.361938
0.195217 5.364374
0.196443 5.366927
0.197669 5.369589
0.198895 5.372348
0.200121 5.375194
0.201347 5.378118
0.202573 5.381107
0.203800 5.384150
0.205026 5.387237
0.206252 5.390354
0.207478 5.393489
0.208704 5.396632
0.209930 5.399768
0.211156 5.402886
0.212382 5.405974
0.213608 5.409018
0.214834 5.412007
0.216060 5.414928
0.217286 5.417769
0.218512 5.420518
0.219739 5.423163
0.220965 5.425692
0.222191 5.428095
0.223417 5.430361
0.224643 5.432479
0.225869 5.434439
0.227095 5.436233
0.228321 5.437850
0.229547 5.439284
0.230773 5.440528
0.231999 5.441573
0.233225 5.442416
0.234452 5.443052
0.235678 5.443477
0.236904 5.443690
0.238130 5.443691
0.239356 5.443480

0.239356 5.443480
0.243034 5.441623
0.246712 5.438126
0.250391 5.433479
0.254069 5.428588
0.257747 5.425016
0.261425 5.425340
0.265103 5.433503
0.268782 5.454617
0.272460 5.493218
0.276138 5.477944
0.279816 5.462426
0.283494 5.447171
0.287173 5.432242
0.290851 5.417690
0.294529 5.403554
0.298208 5.389861
0.301886 5.376626
0.305564 5.363848
0.309242 5.351512
0.312920 5.339591
0.316599 5.328045
0.320277 5.316823
0.323955 5.305866
0.327633 5.295106
0.331311 5.284475
0.334990 5.273900
0.338668 5.263313
0.342346 5.252649
0.346024 5.241852
0.349703 5.230878
0.353381 5.219695
0.357059 5.208286
0.360737 5.196653
0.364416 5.184816
0.368094 5.172811
0.371772 5.160697
0.375450 5.148547
0.379128 5.136453
0.382807 5.124520
0.386485 5.112865
0.390163 5.101616
0.393841 5.090905
0.397520 5.080865
0.401198 5.071631
0.404876 5.063330
0.408554 5.056081
0.412233 5.049992
0.415911 5.045155
0.419589 5.041645
0.423267 5.039517
0.426945 5.038804

0.426945 5.038804
0.429949 5.038440
0.432952 5.037349
0.435955 5.035537
0.438958 5.033011
0.441962 5.029779
0.444965 5.025854
0.447968 5.021249
0.450972 5.015979
0.453975 5.010058
0.456978 5.003500
0.459981 4.996318
0.462985 4.988523
0.465988 4.980124
0.468991 4.971125
0.471994 4.961527
0.474998 4.951328
0.478001 4.940519
0.481004 4.929086
0.484007 4.917012
0.487011 4.904273
0.490014 4.890838
0.493017 4.876675
0.496020 4.861746
0.499024 4.846008
0.502027 4.829417
0.505030 4.811927
0.508034 4.793490
0.511037 4.774060
0.514040 4.753591
0.517043 4.732044
0.520047 4.709381
0.523050 4.685574
0.526053 4.660604
0.529056 4.634462
0.532060 4.607158
0.535063 4.578714
0.538066 4.549177
0.541069 4.602193
0.544073 4.688757
0.547076 4.772310
0.550079 4.852508
0.553083 4.928930
0.556086 5.001054
0.559089 5.068245
0.562092 5.129735
0.565095 5.184615
0.568099 5.231840
0.571102 5.270274
0.574105 5.298779
0.577109 5.316352
0.580112 5.322294


0.000000 7.703947
0.003467 7.701635
0.006934 7.694787
0.010401 7.683385
0.013869 7.667403
0.017336 7.646807
0.020803 7.621556
0.024270 7.591609
0.027737 7.556925
0.031205 7.517468
0.034672 7.473210
0.038139 7.424138
0.041606 7.370254
0.045073 7.311581
0.048540 7.248165
0.052008 7.180077
0.055475 7.107415
0.058942 7.030308
0.062409 6.948913
0.065876 6.863415
0.069344 6.774028
0.072811 6.680994
0.076278 6.584580
0.079745 6.485074
0.083212 6.382788
0.086679 6.278050
0.090147 6.171207
0.093614 6.062618
0.097081 5.952659
0.100548 5.841715
0.104015 5.730188
0.107482 5.618490
0.110950 5.507051
0.114417 5.396317
0.117884 5.286772
0.121351 5.250173
0.124818 5.259309
0.128285 5.268427
0.131753 5.311613
0.135220 5.376646
0.138687 5.436549
0.142154 5.491277
0.145621 5.540799
0.149089 5.585097
0.152556 5.624163
0.156023 5.657996
0.159490 5.686600
0.162957 5.709984
0.166424 5.728158
0.169892 5.741130
0.173359 5.748911
0.176826 5.751503

0.176826 5.751503
0.178052 5.751456
0.179278 5.751312
0.180504 5.751073
0.181730 5.750738
0.182956 5.750308
0.184182 5.749782
0.185408 5.749160
0.186635 5.748443
