# distance  frequency (bands are separated by blank lines)
# End points of segments: 
#   0.00000000 0.17682590 0.23935580 0.42694550 0.58011180 
0.000000 -0.007513
0.003467 0.096408
0.006934 0.191820
0.010401 0.286481
0.013869 0.380134
0.017336 0.472501
0.020803 0.563335
0.024270 0.652423
0.027737 0.739592
0.031205 0.824714
0.034672 0.907704
0.038139 0.988515
0.041606 1.067141
0.045073 1.143603
0.048540 1.217952
0.052008 1.290255
0.055475 1.360591
0.058942 1.429041
0.062409 1.495684
0.065876 1.560585
0.069344 1.623792
0.072811 1.685329
0.076278 1.745191
0.079745 1.803342
0.083212 1.859711
0.086679 1.914197
0.090147 1.966667
0.093614 2.016963
0.097081 2.064907
0.100548 2.110306
0.104015 2.152966
0.107482 2.192698
0.110950 2.229328
0.114417 2.262709
0.117884 2.292728
0.121351 2.319316
0.124818 2.342455
0.128285 2.362182
0.131753 2.378594
0.135220 2.391846
0.138687 2.402152
0.142154 2.409782
0.145621 2.415050
0.149089 2.418309
0.152556 2.419939
0.156023 2.420329
0.159490 2.419864
0.162957 2.418910
0.166424 2.417794
0.169892 2.416788
0.173359 2.416099
0.176826 2.415855

0.176826 2.415855
0.178052 2.416077
0.179278 2.416741
0.180504 2.417846
0.181730 2.419391
0.182956 2.421373
0.184182 2.423791
0.185408 2.426641
0.186635 2.429920
0.187861 2.433623
0.189087 2.437746
0.190313 2.442283
0.191539 2.447229
0.192765 2.452578
0.193991 2.458323
0.195217 2.464458
0.196443 2.470975
0.197669 2.477866
0.198895 2.485124
0.200121 2.492741
0.201347 2.500707
0.202573 2.509015
0.203800 2.517656
0.205026 2.526620
0.206252 2.535898
0.207478 2.545481
0.208704 2.555359
0.209930 2.565524
0.211156 2.575965
0.212382 2.586673
0.213608 2.597638
0.214834 2.608851
0.216060 2.620302
0.217286 2.631981
0.218512 2.643880
0.219739 2.655989
0.220965 2.668299
0.222191 2.680799
0.223417 2.693483
0.224643 2.706340
0.225869 2.719361
0.227095 2.732539
0.228321 2.745864
0.229547 2.759328
0.230773 2.772922
0.231999 2.786639
0.233225 2.800470
0.234452 2.814408
0.235678 2.828444
0.236904 2.842570
0.238130 2.856778
0.239356 2.871062

0.239356 2.871062
0.243034 2.914284
0.246712 2.957897
0.250391 3.001679
0.254069 3.045384
0.257747 3.088727
0.261425 3.131359
0.265103 3.172823
0.268782 3.212499
0.272460 3.249514
0.276138 3.282607
0.279816 3.271076
0.283494 3.199376
0.287173 3.126354
0.290851 3.052298
0.294529 2.977484
0.298208 2.902171
0.301886 2.826591
0.305564 2.750951
0.309242 2.675421
0.312920 2.600136
0.316599 2.525191
0.320277 2.450642
0.323955 2.376503
0.327633 2.302748
0.331311 2.229316
0.334990 2.156111
0.338668 2.083008
0.342346 2.009857
0.346024 1.936488
0.349703 1.862718
0.353381 1.788354
0.357059 1.713201
0.360737 1.637066
0.364416 1.559763
0.368094 1.481119
0.371772 1.400979
0.375450 1.319206
0.379128 1.235692
0.382807 1.150353
0.386485 1.063142
0.390163 0.974039
0.393841 0.883064
0.397520 0.790270
0.401198 0.695749
0.404876 0.599623
0.408554 0.502053
0.412233 0.403227
0.415911 0.303362
0.419589 0.202695
0.423267 0.101485
0.426945 -0.000000

0.426945 -0.000000
0.429949 0.090009
0.432952 0.179878
0.435955 0.269471
0.438958 0.358652
0.441962 0.447290
0.444965 0.535257
0.447968 0.622433
0.450972 0.708705
0.453975 0.793966
0.456978 0.878120
0.459981 0.961080
0.462985 1.042771
0.465988 1.123128
0.468991 1.202098
0.471994 1.279643
0.474998 1.355734
0.478001 1.430357
0.481004 1.503511
0.484007 1.575207
0.487011 1.645469
0.490014 1.714332
0.493017 1.781843
0.496020 1.848057
0.499024 1.913039
0.502027 1.976861
0.505030 2.039602
0.508034 2.101342
0.511037 2.162166
0.514040 2.222158
0.517043 2.281398
0.520047 2.339966
0.523050 2.397929
0.526053 2.455349
0.529056 2.512273
0.532060 2.568732
0.535063 2.624740
0.538066 2.680286
0.541069 2.735330
0.544073 2.789801
0.547076 2.843581
0.550079 2.896503
0.553083 2.948330
0.556086 2.998736
0.559089 3.047275
0.562092 3.093345
0.565095 3.136131
0.568099 3.174550
0.571102 3.207209
0.574105 3.232447
0.577109 3.248528
0.580112 3.254068


0.000000 -0.003503
0.003467 0.096556
0.006934 0.191891
0.010401 0.286527
0.013869 0.380167
0.017336 0.472527
0.020803 0.563356
0.024270 0.652440
0.027737 0.739606
0.031205 0.824726
0.034672 0.907714
0.038139 0.988525
0.041606 1.067149
0.045073 1.143611
0.048540 1.217959
0.052008 1.290262
0.055475 1.360597
0.058942 1.429046
0.062409 1.495689
0.065876 1.560589
0.069344 1.623796
0.072811 1.685333
0.076278 1.745195
0.079745 1.803345
0.083212 1.859714
0.086679 1.914200
0.090147 1.966670
0.093614 2.016966
0.097081 2.064909
0.100548 2.110308
0.104015 2.152968
0.107482 2.192700
0.110950 2.229330
0.114417 2.262711
0.117884 2.292730
0.121351 2.319318
0.124818 2.342457
0.128285 2.362184
0.131753 2.378596
0.135220 2.391847
0.138687 2.402154
0.142154 2.409783
0.145621 2.415051
0.149089 2.418311
0.152556 2.419940
0.156023 2.420330
0.159490 2.419866
0.162957 2.418912
0.166424 2.417795
0.169892 2.416790
0.173359 2.416100
0.176826 2.415856

0.176826 2.415856
0.178052 2.416735
0.179278 2.419372
0.180504 2.423760
0.181730 2.429886
0.182956 2.437736
0.184182 2.447289
0.185408 2.458521
0.186635 2.471403
0.187861 2.485905
0.189087 2.501992
0.190313 2.519625
0.191539 2.538766
0.192765 2.559371
0.193991 2.581395
0.195217 2.604793
0.196443 2.629518
0.197669 2.655520
0.198895 2.682751
0.200121 2.711161
0.201347 2.740700
0.202573 2.771319
0.203800 2.802966
0.205026 2.835594
0.206252 2.869152
0.207478 2.903592
0.208704 2.938867
0.209930 2.974929
0.211156 3.011733
0.212382 3.049233
0.213608 3.087385
0.214834 3.126145
0.216060 3.165472
0.217286 3.205322
0.218512 3.245657
0.219739 3.286436
0.220965 3.327620
0.222191 3.369171
0.223417 3.411053
0.224643 3.453227
0.225869 3.495659
0.227095 3.538312
0.228321 3.581151
0.229547 3.624141
0.230773 3.667248
0.231999 3.710436
0.233225 3.753670
0.234452 3.796914
0.235678 3.840132
0.236904 3.883287
0.238130 3.908143
0.239356 3.895498

0.239356 3.895498
0.243034 3.855079
0.246712 3.810968
0.250391 3.763233
0.254069 3.711985
0.257747 3.657373
0.261425 3.599577
0.265103 3.538810
0.268782 3.475309
0.272460 3.409334
0.276138 3.341160
0.279816 3.309968
0.283494 3.329094
0.287173 3.336902
0.290851 3.330450
0.294529 3.308237
0.298208 3.271071
0.301886 3.221502
0.305564 3.162508
0.309242 3.096632
0.312920 3.025747
0.316599 2.951154
0.320277 2.873735
0.323955 2.794085
0.327633 2.712601
0.331311 2.629545
0.334990 2.545083
0.338668 2.459313
0.342346 2.372281
0.346024 2.283999
0.349703 2.194454
0.353381 2.103613
0.357059 2.011434
0.360737 1.917870
0.364416 1.822874
0.368094 1.726403
0.371772 1.628421
0.375450 1.528906
0.379128 1.427847
0.382807 1.325250
0.386485 1.221136
0.390163 1.115547
0.393841 1.008542
0.397520 0.900199
0.401198 0.790613
0.404876 0.679897
0.408554 0.568181
0.412233 0.455608
0.415911 0.342334
0.419589 0.228524
0.423267 0.114353
0.426945 -0.000000

0.426945 -0.000000
0.429949 0.090009
0.432952 0.179878
0.435955 0.269471
0.438958 0.358652
0.441962 0.447290
0.444965 0.535257
0.447968 0.622433
0.450972 0.708705
0.453975 0.793966
0.456978 0.878120
0.459981 0.961080
0.462985 1.042771
0.465988 1.123128
0.468991 1.202098
0.471994 1.279643
0.474998 1.355734
0.478001 1.430357
0.481004 1.503511
0.484007 1.575207
0.487011 1.645469
0.490014 1.714332
0.493017 1.781843
0.496020 1.848057
0.499024 1.913039
0.502027 1.976861
0.505030 2.039602
0.508034 2.101342
0.511037 2.162166
0.514040 2.222158
0.517043 2.281398
0.520047 2.339966
0.523050 2.397929
0.526053 2.455349
0.529056 2.512273
0.532060 2.568732
0.535063 2.624740
0.538066 2.680286
0.541069 2.735330
0.544073 2.789801
0.547076 2.843581
0.550079 2.896503
0.553083 2.948330
0.556086 2.998736
0.559089 3.047275
0.562092 3.093345
0.565095 3.136131
0.568099 3.174550
0.571102 3.207209
0.574105 3.232447
0.577109 3.248528
0.580112 3.254068


0.000000 -0.003272
0.003467 0.178188
0.006934 0.354315
0.010401 0.529684
0.013869 0.703966
0.017336 0.876837
0.020803 1.047994
0.024270 1.217164
0.027737 1.384104
0.031205 1.548607
0.034672 1.710499
0.038139 1.869643
0.041606 2.025932
0.045073 2.179292
0.048540 2.329675
0.052008 2.477055
0.055475 2.621422
0.058942 2.762779
0.062409 2.901133
0.065876 3.036492
0.069344 3.168859
0.072811 3.298225
0.076278 3.424567
0.079745 3.547846
0.083212 3.667998
0.086679 3.784938
0.090147 3.898559
0.093614 4.008725
0.097081 4.115278
0.100548 4.218031
0.104015 4.316765
0.107482 4.411218
0.110950 4.501063
0.114417 4.585845
0.117884 4.664845
0.121351 4.736700
0.124818 4.798250
0.128285 4.840767
0.131753 4.843362
0.135220 4.794817
0.138687 4.719362
0.142154 4.636508
0.145621 4.553830
0.149089 4.474655
0.152556 4.400945
0.156023 4.334147
0.159490 4.275459
0.162957 4.225918
0.166424 4.186405
0.169892 4.157641
0.173359 4.140161
0.176826 4.134297

0.176826 4.134297
0.178052 4.134258
0.179278 4.134140
0.180504 4.133942
0.181730 4.133663
0.182956 4.133299
0.184182 4.132848
0.185408 4.132306
0.186635 4.131669
0.187861 4.130931
0.189087 4.130087
0.190313 4.129131
0.191539 4.128056
0.192765 4.126854
0.193991 4.125518
0.195217 4.124039
0.196443 4.122409
0.197669 4.120619
0.198895 4.118659
0.200121 4.116519
0.201347 4.114191
0.202573 4.111663
0.203800 4.108925
0.205026 4.105967
0.206252 4.102778
0.207478 4.099348
0.208704 4.095666
0.209930 4.091721
0.211156 4.087504
0.212382 4.083003
0.213608 4.078210
0.214834 4.073113
0.216060 4.067704
0.217286 4.061972
0.218512 4.055909
0.219739 4.049507
0.220965 4.042756
0.222191 4.035649
0.223417 4.028179
0.224643 4.020339
0.225869 4.012121
0.227095 4.003521
0.228321 3.994531
0.229547 3.985149
0.230773 3.975368
0.231999 3.965185
0.233225 3.954597
0.234452 3.943601
0.235678 3.932194
0.236904 3.920375
0.238130 3.926340
0.239356 3.969251

0.239356 3.969251
0.243034 4.096692
0.246712 4.221123
0.250391 4.340784
0.254069 4.387272
0.257747 4.330217
0.261425 4.271944
0.265103 4.212961
0.268782 4.153953
0.272460 4.095873
0.276138 4.040061
0.279816 3.988416
0.283494 3.943521
0.287173 3.908538
0.290851 3.886477
0.294529 3.878894
0.298208 3.885022
0.301886 3.902335
0.305564 3.927856
0.309242 3.959026
0.312920 3.993934
0.316599 4.031217
0.320277 4.042121
0.323955 3.955597
0.327633 3.865500
0.331311 3.771797
0.334990 3.674433
0.338668 3.573337
0.342346 3.468425
0.346024 3.359607
0.349703 3.246793
0.353381 3.129894
0.357059 3.008833
0.360737 2.883548
0.364416 2.753994
0.368094 2.620151
0.371772 2.482023
0.375450 2.339648
0.379128 2.193091
0.382807 2.042457
0.386485 1.887881
0.390163 1.729537
0.393841 1.567633
0.397520 1.402411
0.401198 1.234148
0.404876 1.063149
0.408554 0.889749
0.412233 0.714308
0.415911 0.537207
0.419589 0.358845
0.423267 0.179636
0.426945 -0.000000

0.426945 0.000000
0.429949 0.144585
0.432952 0.288998
0.435955 0.433070
0.438958 0.576632
0.441962 0.719522
0.444965 0.861581
0.447968 1.002658
0.450972 1.142611
0.453975 1.281305
0.456978 1.418616
0.459981 1.554429
0.462985 1.688642
0.465988 1.821166
0.468991 1.951921
0.471994 2.080842
0.474998 2.207876
0.478001 2.332982
0.481004 2.456131
0.484007 2.577307
0.487011 2.696502
0.490014 2.813722
0.493017 2.928977
0.496020 3.042288
0.499024 3.153681
0.502027 3.263186
0.505030 3.370838
0.508034 3.476669
0.511037 3.580713
0.514040 3.682999
0.517043 3.783548
0.520047 3.882376
0.523050 3.979484
0.526053 4.074859
0.529056 4.168470
0.532060 4.260261
0.535063 4.316597
0.538066 4.283647
0.541069 4.249370
0.544073 4.213894
0.547076 4.177387
0.550079 4.140065
0.553083 4.102211
0.556086 4.064193
0.559089 4.026493
0.562092 3.989749
0.565095 3.954805
0.568099 3.922768
0.571102 3.895051
0.574105 3.873333
0.577109 3.859358
0.580112 3.854520


0.000000 4.726088
0.003467 4.726777
0.006934 4.728792
0.010401 4.732064
0.013869 4.736478
0.017336 4.741885
0.020803 4.748106
0.024270 4.754942
0.027737 4.762186
0.031205 4.769631
0.034672 4.777081
0.038139 4.784361
0.041606 4.791328
0.045073 4.797871
0.048540 4.803924
0.052008 4.809460
0.055475 4.814495
0.058942 4.819086
0.062409 4.823320
0.065876 4.827317
0.069344 4.831210
0.072811 4.835147
0.076278 4.839273
0.079745 4.843725
0.083212 4.848623
0.086679 4.854060
0.090147 4.860102
0.093614 4.866780
0.097081 4.874091
0.100548 4.881996
0.104015 4.890425
0.107482 4.899281
0.110950 4.908444
0.114417 4.917780
0.117884 4.927144
0.121351 4.936393
0.124818 4.945385
0.128285 4.953995
0.131753 4.962110
0.135220 4.969639
0.138687 4.976516
0.142154 4.982696
0.145621 4.988157
0.149089 4.992900
0.152556 4.996943
0.156023 5.000317
0.159490 5.003063
0.162957 5.005227
0.166424 5.006854
0.169892 5.007984
0.173359 5.008649
0.176826 5.008868

0.176826 5.008868
0.178052 5.008710
0.179278 5.008237
0.180504 5.007449
0.181730 5.006345
0.182956 5.004926
0.184182 5.003190
0.185408 5.001139
0.186635 4.998772
0.187861 4.996088
0.189087 4.993088
0.190313 4.989771
0.191539 4.986136
0.192765 4.982185
0.193991 4.977915
0.195217 4.973327
0.196443 4.968421
0.197669 4.963196
0.198895 4.957652
0.200121 4.951788
0.201347 4.945605
0.202573 4.939102
0.203800 4.932278
0.205026 4.925134
0.206252 4.917670
0.207478 4.909885
0.208704 4.901779
0.209930 4.893352
0.211156 4.884605
0.212382 4.875537
0.213608 4.866148
0.214834 4.856440
0.216060 4.846412
0.217286 4.836065
0.218512 4.825400
0.219739 4.814417
0.220965 4.803118
0.222191 4.791502
0.223417 4.779572
0.224643 4.767329
0.225869 4.754775
0.227095 4.741910
0.228321 4.728738
0.229547 4.715260
0.230773 4.701479
0.231999 4.687396
0.233225 4.673016
0.234452 4.658340
0.235678 4.643373
0.236904 4.628118
0.238130 4.612580
0.239356 4.596761

0.239356 4.596761
0.243034 4.547677
0.246712 4.496268
0.250391 4.442722
0.254069 4.453160
0.257747 4.554517
0.261425 4.639582
0.265103 4.702350
0.268782 4.739080
0.272460 4.751060
0.276138 4.743211
0.279816 4.720697
0.283494 4.687340
0.287173 4.645632
0.290851 4.597164
0.294529 4.542972
0.298208 4.483754
0.301886 4.419993
0.305564 4.352035
0.309242 4.280123
0.312920 4.204432
0.316599 4.125075
0.320277 4.069913
0.323955 4.109326
0.327633 4.148942
0.331311 4.188365
0.334990 4.227283
0.338668 4.265446
0.342346 4.302644
0.346024 4.338707
0.349703 4.373489
0.353381 4.406869
0.357059 4.438749
0.360737 4.469047
0.364416 4.497701
0.368094 4.524661
0.371772 4.549895
0.375450 4.573382
0.379128 4.595114
0.382807 4.615092
0.386485 4.633327
0.390163 4.649836
0.393841 4.664645
0.397520 4.677780
0.401198 4.689272
0.404876 4.699152
0.408554 4.707451
0.412233 4.714197
0.415911 4.719416
0.419589 4.723128
0.423267 4.725349
0.426945 4.726088

0.426945 4.726088
0.429949 4.725929
0.432952 4.725451
0.435955 4.724650
0.438958 4.723521
0.441962 4.722057
0.444965 4.720246
0.447968 4.718076
0.450972 4.715530
0.453975 4.712589
0.456978 4.709228
0.459981 4.705420
0.462985 4.701134
0.465988 4.696334
0.468991 4.690978
0.471994 4.685021
0.474998 4.678414
0.478001 4.671104
0.481004 4.663030
0.484007 4.654133
0.487011 4.644347
0.490014 4.633606
0.493017 4.621840
0.496020 4.608979
0.499024 4.594956
0.502027 4.579701
0.505030 4.563150
0.508034 4.545241
0.511037 4.525918
0.514040 4.505132
0.517043 4.482841
0.520047 4.459012
0.523050 4.433627
0.526053 4.406676
0.529056 4.378168
0.532060 4.348127
0.535063 4.316597
0.538066 4.283647
0.541069 4.249370
0.544073 4.213894
0.547076 4.177387
0.550079 4.140065
0.553083 4.102211
0.556086 4.064193
0.559089 4.026493
0.562092 3.989749
0.565095 3.954805
0.568099 3.922768
0.571102 3.895051
0.574105 3.873333
0.577109 3.859358
0.580112 3.854520


0.000000 4.726088
0.003467 4.726777
0.006934 4.728792
0.010401 4.732064
0.013869 4.736478
0.017336 4.741885
0.020803 4.748106
0.024270 4.754943
0.027737 4.762187
0.031205 4.769631
0.034672 4.777081
0.038139 4.784361
0.041606 4.791328
0.045073 4.797872
0.048540 4.803924
0.052008 4.809460
0.055475 4.814496
0.058942 4.819086
0.062409 4.823321
0.065876 4.827317
0.069344 4.831211
0.072811 4.835148
0.076278 4.839274
0.079745 4.843726
0.083212 4.848623
0.086679 4.854060
0.090147 4.860102
0.093614 4.866781
0.097081 4.874091
0.100548 4.881996
0.104015 4.890425
0.107482 4.899281
0.110950 4.908445
0.114417 4.917780
0.117884 4.927145
0.121351 4.936393
0.124818 4.945386
0.128285 4.953995
0.131753 4.962110
0.135220 4.969640
0.138687 4.976516
0.142154 4.982696
0.145621 4.988157
0.149089 4.992900
0.152556 4.996943
0.156023 5.000317
0.159490 5.003063
0.162957 5.005227
0.166424 5.006854
0.169892 5.007984
0.173359 5.008649
0.176826 5.008868

0.176826 5.008868
0.178052 5.009002
0.179278 5.009403
0.180504 5.010070
0.181730 5.011001
0.182956 5.012193
0.184182 5.013640
0.185408 5.015339
0.186635 5.017284
0.187861 5.019468
0.189087 5.021883
0.190313 5.024521
0.191539 5.027373
0.192765 5.030430
0.193991 5.033681
0.195217 5.037114
0.196443 5.040718
0.197669 5.044482
0.198895 5.048391
0.200121 5.052433
0.201347 5.056595
0.202573 5.060861
0.203800 5.065218
0.205026 5.069651
0.206252 5.074144
0.207478 5.078684
0.208704 5.083254
0.209930 5.087839
0.211156 5.092424
0.212382 5.096994
0.213608 5.101533
0.214834 5.106027
0.216060 5.110461
0.217286 5.114820
0.218512 5.119090
0.219739 5.123258
0.220965 5.127309
0.222191 5.131232
0.223417 5.135015
0.224643 5.138645
0.225869 5.142114
0.227095 5.145410
0.228321 5.148526
0.229547 5.151454
0.230773 5.154188
0.231999 5.156722
0.233225 5.159055
0.234452 5.161184
0.235678 5.163111
0.236904 5.164838
0.238130 5.166370
0.239356 5.167716

0.239356 5.167716
0.243034 5.170780
0.246712 5.172875
0.250391 5.175098
0.254069 5.179395
0.257747 5.189012
0.261425 5.189466
0.265103 5.174407
0.268782 5.159146
0.272460 5.143782
0.276138 5.128417
0.279816 5.113160
0.283494 5.098115
0.287173 5.083381
0.290851 5.069052
0.294529 5.055206
0.298208 5.041911
0.301886 5.029215
0.305564 5.017149
0.309242 5.005723
0.312920 4.994927
0.316599 4.984728
0.320277 4.975076
0.323955 4.965902
0.327633 4.957119
0.331311 4.948631
0.334990 4.940332
0.338668 4.932112
0.342346 4.923861
0.346024 4.915476
0.349703 4.906863
0.353381 4.897944
0.357059 4.888658
0.360737 4.878970
0.364416 4.868868
0.368094 4.858365
0.371772 4.847505
0.375450 4.836357
0.379128 4.825015
0.382807 4.813597
0.386485 4.802240
0.390163 4.791097
0.393841 4.780330
0.397520 4.770110
0.401198 4.760605
0.404876 4.751980
0.408554 4.744390
0.412233 4.737972
0.415911 4.732849
0.419589 4.729117
0.423267 4.726849
0.426945 4.726088

0.426945 4.726088
0.429949 4.725929
0.432952 4.725451
0.435955 4.724650
0.438958 4.723521
0.441962 4.722057
0.444965 4.720246
0.447968 4.718076
0.450972 4.715530
0.453975 4.712589
0.456978 4.709228
0.459981 4.705420
0.462985 4.701134
0.465988 4.696334
0.468991 4.690978
0.471994 4.685021
0.474998 4.678414
0.478001 4.671104
0.481004 4.663030
0.484007 4.654133
0.487011 4.644347
0.490014 4.633606
0.493017 4.621840
0.496020 4.608979
0.499024 4.594956
0.502027 4.579701
0.505030 4.563150
0.508034 4.545241
0.511037 4.525918
0.514040 4.505132
0.517043 4.482841
0.520047 4.459012
0.523050 4.433627
0.526053 4.406676
0.529056 4.378168
0.532060 4.348127
0.535063 4.350151
0.538066 4.438026
0.541069 4.523728
0.544073 4.607057
0.547076 4.687750
0.550079 4.765474
0.553083 4.839811
0.556086 4.910237
0.559089 4.976105
0.562092 5.036625
0.565095 5.090850
0.568099 5.137689
0.571102 5.175942
0.574105 5.204396
0.577109 5.221975
0.580112 5.227925


0.000000 7.503143
0.003467 7.501343
0.006934 7.496004
0.010401 7.487095
0.013869 7.474568
0.017336 7.458356
0.020803 7.438384
0.024270 7.414567
0.027737 7.386817
0.031205 7.355049
0.034672 7.319187
0.038139 7.279165
0.041606 7.234938
0.045073 7.186478
0.048540 7.133785
0.052008 7.076883
0.055475 7.015824
0.058942 6.950690
0.062409 6.881585
0.065876 6.808641
0.069344 6.732013
0.072811 6.651872
0.076278 6.568409
0.079745 6.481826
0.083212 6.392339
0.086679 6.300171
0.090147 6.205557
0.093614 6.108742
0.097081 6.009987
0.100548 5.909576
0.104015 5.807828
0.107482 5.705116
0.110950 5.601905
0.114417 5.498819
0.117884 5.396797
0.121351 5.297481
0.124818 5.204381
0.128285 5.126659
0.131753 5.085727
0.135220 5.093417
0.138687 5.126213
0.142154 5.165406
0.145621 5.204305
0.149089 5.240534
0.152556 5.273126
0.156023 5.301649
0.159490 5.325895
0.162957 5.345773
0.166424 5.361241
0.169892 5.372288
0.173359 5.378915
0.176826 5.381123

0.176826 5.381123
0.178052 5.381076
0.179278 5.380932
0.180504 5.380694
0.181730 5.380360
0.182956 5.379932
0.184182 5.379410
0.185408 5.378793
0.186635 5.378083
